   W          E0+(p)
 (MeV)      Re      Im
 1487.0   13.489   8.606
 1488.0   12.762   9.189
 1489.0   12.209   9.620
 1490.0   11.740   9.976
 1491.0   11.319  10.283
 1492.0   10.931  10.556
 1493.0   10.566  10.801
 1494.0   10.219  11.025
 1495.0    9.886  11.229
 1496.0    9.565  11.418
 1497.0    9.252  11.592
 1498.0    8.947  11.754
 1499.0    8.648  11.903
 1500.0    8.355  12.041
 1501.0    8.067  12.169
 1502.0    7.784  12.287
 1503.0    7.505  12.395
 1504.0    7.230  12.495
 1505.0    6.958  12.587
 1506.0    6.690  12.670
 1507.0    6.425  12.745
 1508.0    6.163  12.813
 1509.0    5.904  12.874
 1510.0    5.649  12.928
 1511.0    5.396  12.975
 1512.0    5.147  13.015
 1513.0    4.901  13.049
 1514.0    4.657  13.076
 1515.0    4.417  13.098
 1516.0    4.180  13.114
 1517.0    3.946  13.124
 1518.0    3.715  13.129
 1519.0    3.487  13.129
 1520.0    3.262  13.123
 1521.0    3.041  13.113
 1522.0    2.823  13.098
 1523.0    2.608  13.078
 1524.0    2.396  13.054
 1525.0    2.188  13.026
 1526.0    1.983  12.993
 1527.0    1.781  12.956
 1528.0    1.583  12.916
 1529.0    1.388  12.872
 1530.0    1.197  12.825
 1531.0    1.009  12.774
 1532.0    0.825  12.719
 1533.0    0.643  12.662
 1534.0    0.466  12.602
 1535.0    0.292  12.539
 1536.0    0.121  12.473
 1537.0   -0.047  12.405
 1538.0   -0.211  12.334
 1539.0   -0.371  12.261
 1540.0   -0.528  12.186
 1541.0   -0.682  12.109
 1542.0   -0.833  12.029
 1543.0   -0.980  11.948
 1544.0   -1.124  11.865
 1545.0   -1.265  11.780
 1546.0   -1.402  11.694
 1547.0   -1.537  11.606
 1548.0   -1.668  11.517
 1549.0   -1.796  11.427
 1550.0   -1.921  11.335
 1551.0   -2.043  11.242
 1552.0   -2.162  11.148
 1553.0   -2.278  11.054
 1554.0   -2.391  10.958
 1555.0   -2.502  10.861
 1556.0   -2.609  10.764
 1557.0   -2.714  10.666
 1558.0   -2.816  10.567
 1559.0   -2.915  10.468
 1560.0   -3.012  10.368
 1561.0   -3.105  10.267
 1562.0   -3.197  10.167
 1563.0   -3.286  10.065
 1564.0   -3.372   9.964
 1565.0   -3.456   9.862
 1566.0   -3.537   9.760
 1567.0   -3.616   9.657
 1568.0   -3.693   9.554
 1569.0   -3.767   9.452
 1570.0   -3.839   9.349
 1571.0   -3.909   9.245
 1572.0   -3.977   9.142
 1573.0   -4.043   9.039
 1574.0   -4.106   8.935
 1575.0   -4.167   8.832
 1576.0   -4.227   8.729
 1577.0   -4.284   8.625
 1578.0   -4.339   8.522
 1579.0   -4.392   8.418
 1580.0   -4.444   8.315
 1581.0   -4.493   8.212
 1582.0   -4.540   8.109
 1583.0   -4.586   8.006
 1584.0   -4.629   7.903
 1585.0   -4.671   7.800
 1586.0   -4.711   7.697
 1587.0   -4.749   7.594
 1588.0   -4.786   7.492
 1589.0   -4.820   7.389
 1590.0   -4.853   7.287
 1591.0   -4.884   7.185
 1592.0   -4.913   7.083
 1593.0   -4.940   6.982
 1594.0   -4.966   6.880
 1595.0   -4.989   6.779
 1596.0   -5.011   6.678
 1597.0   -5.031   6.577
 1598.0   -5.050   6.476
 1599.0   -5.066   6.376
 1600.0   -5.081   6.276
 1601.0   -5.094   6.177
 1602.0   -5.105   6.077
 1603.0   -5.115   5.978
 1604.0   -5.122   5.880
 1605.0   -5.128   5.781
 1606.0   -5.132   5.684
 1607.0   -5.134   5.586
 1608.0   -5.134   5.490
 1609.0   -5.132   5.394
 1610.0   -5.128   5.298
 1611.0   -5.123   5.203
 1612.0   -5.115   5.109
 1613.0   -5.106   5.015
 1614.0   -5.095   4.923
 1615.0   -5.081   4.831
 1616.0   -5.066   4.740
 1617.0   -5.049   4.650
 1618.0   -5.030   4.561
 1619.0   -5.010   4.473
 1620.0   -4.987   4.386
 1621.0   -4.963   4.301
 1622.0   -4.936   4.217
 1623.0   -4.908   4.134
 1624.0   -4.879   4.053
 1625.0   -4.847   3.973
 1626.0   -4.814   3.895
 1627.0   -4.779   3.818
 1628.0   -4.743   3.744
 1629.0   -4.705   3.671
 1630.0   -4.666   3.600
 1631.0   -4.626   3.530
 1632.0   -4.584   3.463
 1633.0   -4.541   3.398
 1634.0   -4.497   3.335
 1635.0   -4.452   3.274
 1636.0   -4.406   3.215
 1637.0   -4.359   3.159
 1638.0   -4.312   3.104
 1639.0   -4.264   3.052
 1640.0   -4.215   3.002
 1641.0   -4.166   2.955
 1642.0   -4.117   2.909
 1643.0   -4.068   2.866
 1644.0   -4.018   2.825
 1645.0   -3.969   2.787
 1646.0   -3.919   2.750
 1647.0   -3.870   2.716
 1648.0   -3.822   2.683
 1649.0   -3.773   2.653
 1650.0   -3.726   2.625
 1651.0   -3.679   2.598
 1652.0   -3.632   2.573
 1653.0   -3.586   2.551
 1654.0   -3.541   2.530
 1655.0   -3.497   2.510
 1656.0   -3.454   2.492
 1657.0   -3.412   2.476
 1658.0   -3.370   2.461
 1659.0   -3.330   2.447
 1660.0   -3.291   2.434
 1661.0   -3.253   2.423
 1662.0   -3.216   2.413
 1663.0   -3.180   2.404
 1664.0   -3.145   2.395
 1665.0   -3.111   2.388
 1666.0   -3.079   2.381
 1667.0   -3.047   2.375
 1668.0   -3.017   2.370
 1669.0   -2.987   2.365
 1670.0   -2.959   2.361
 1671.0   -2.932   2.357
 1672.0   -2.906   2.354
 1673.0   -2.881   2.351
 1674.0   -2.857   2.348
 1675.0   -2.834   2.346
 1676.0   -2.812   2.344
 1677.0   -2.791   2.342
 1678.0   -2.770   2.340
 1679.0   -2.751   2.339
 1680.0   -2.732   2.337
 1681.0   -2.714   2.335
 1682.0   -2.697   2.334
 1683.0   -2.681   2.332
 1684.0   -2.666   2.331
 1685.0   -2.651   2.329
 1686.0   -2.636   2.327
 1687.0   -2.623   2.325
 1688.0   -2.610   2.324
 1689.0   -2.597   2.322
 1690.0   -2.585   2.320
 1691.0   -2.574   2.317
 1692.0   -2.563   2.315
 1693.0   -2.553   2.312
 1694.0   -2.543   2.310
 1695.0   -2.533   2.307
 1696.0   -2.524   2.304
 1697.0   -2.516   2.301
 1698.0   -2.507   2.297
 1699.0   -2.499   2.294
 1700.0   -2.491   2.290
 1701.0   -2.484   2.287
 1702.0   -2.477   2.283
 1703.0   -2.470   2.278
 1704.0   -2.464   2.274
 1705.0   -2.457   2.270
 1706.0   -2.451   2.265
 1707.0   -2.445   2.260
 1708.0   -2.440   2.255
 1709.0   -2.434   2.250
 1710.0   -2.429   2.245
 1711.0   -2.424   2.240
 1712.0   -2.419   2.234
 1713.0   -2.414   2.228
 1714.0   -2.409   2.222
 1715.0   -2.405   2.217
 1716.0   -2.400   2.210
 1717.0   -2.396   2.204
 1718.0   -2.392   2.198
 1719.0   -2.387   2.192
 1720.0   -2.383   2.185
 1721.0   -2.379   2.178
 1722.0   -2.376   2.172
 1723.0   -2.372   2.165
 1724.0   -2.368   2.158
 1725.0   -2.364   2.151
 1726.0   -2.361   2.144
 1727.0   -2.357   2.136
 1728.0   -2.354   2.129
 1729.0   -2.350   2.122
 1730.0   -2.347   2.114
 1731.0   -2.343   2.107
 1732.0   -2.340   2.099
 1733.0   -2.337   2.091
 1734.0   -2.333   2.084
 1735.0   -2.330   2.076
 1736.0   -2.327   2.068
 1737.0   -2.324   2.060
 1738.0   -2.320   2.052
 1739.0   -2.317   2.044
 1740.0   -2.314   2.036
 1741.0   -2.311   2.028
 1742.0   -2.308   2.020
 1743.0   -2.305   2.012
 1744.0   -2.302   2.004
 1745.0   -2.298   1.996
 1746.0   -2.295   1.987
 1747.0   -2.292   1.979
 1748.0   -2.289   1.971
 1749.0   -2.286   1.962
 1750.0   -2.283   1.954
 1751.0   -2.280   1.946
 1752.0   -2.277   1.937
 1753.0   -2.274   1.929
 1754.0   -2.271   1.921
 1755.0   -2.268   1.912
 1756.0   -2.265   1.904
 1757.0   -2.262   1.895
 1758.0   -2.259   1.887
 1759.0   -2.256   1.878
 1760.0   -2.253   1.870
 1761.0   -2.250   1.861
 1762.0   -2.246   1.853
 1763.0   -2.243   1.845
 1764.0   -2.240   1.836
 1765.0   -2.237   1.828
 1766.0   -2.234   1.819
 1767.0   -2.231   1.811
 1768.0   -2.228   1.802
 1769.0   -2.225   1.794
 1770.0   -2.222   1.785
 1771.0   -2.219   1.777
 1772.0   -2.216   1.768
 1773.0   -2.213   1.760
 1774.0   -2.210   1.751
 1775.0   -2.207   1.743
 1776.0   -2.204   1.734
 1777.0   -2.201   1.726
 1778.0   -2.198   1.717
 1779.0   -2.195   1.709
 1780.0   -2.192   1.701
 1781.0   -2.189   1.692
 1782.0   -2.186   1.684
 1783.0   -2.183   1.675
 1784.0   -2.180   1.667
 1785.0   -2.177   1.659
 1786.0   -2.174   1.650
 1787.0   -2.171   1.642
 1788.0   -2.168   1.633
 1789.0   -2.165   1.625
 1790.0   -2.163   1.617
 1791.0   -2.160   1.608
 1792.0   -2.157   1.600
 1793.0   -2.154   1.591
 1794.0   -2.151   1.583
 1795.0   -2.148   1.575
 1796.0   -2.145   1.566
 1797.0   -2.142   1.558
 1798.0   -2.140   1.550
 1799.0   -2.137   1.541
 1800.0   -2.134   1.533
 1801.0   -2.131   1.525
 1802.0   -2.128   1.516
 1803.0   -2.126   1.508
 1804.0   -2.123   1.500
 1805.0   -2.120   1.491
 1806.0   -2.117   1.483
 1807.0   -2.115   1.474
 1808.0   -2.112   1.466
 1809.0   -2.109   1.458
 1810.0   -2.107   1.449
 1811.0   -2.104   1.441
 1812.0   -2.101   1.432
 1813.0   -2.099   1.424
 1814.0   -2.096   1.415
 1815.0   -2.093   1.407
 1816.0   -2.091   1.398
 1817.0   -2.088   1.390
 1818.0   -2.086   1.381
 1819.0   -2.083   1.373
 1820.0   -2.081   1.364
 1821.0   -2.078   1.355
 1822.0   -2.076   1.347
 1823.0   -2.073   1.338
 1824.0   -2.071   1.329
 1825.0   -2.068   1.320
 1826.0   -2.066   1.311
 1827.0   -2.063   1.303
 1828.0   -2.061   1.294
 1829.0   -2.059   1.285
 1830.0   -2.056   1.276
 1831.0   -2.054   1.266
 1832.0   -2.051   1.257
 1833.0   -2.049   1.248
 1834.0   -2.047   1.239
 1835.0   -2.044   1.229
 1836.0   -2.042   1.220
 1837.0   -2.040   1.210
 1838.0   -2.037   1.201
 1839.0   -2.035   1.191
 1840.0   -2.032   1.181
 1841.0   -2.030   1.171
 1842.0   -2.027   1.161
 1843.0   -2.025   1.151
 1844.0   -2.022   1.141
 1845.0   -2.020   1.131
 1846.0   -2.017   1.120
 1847.0   -2.015   1.110
 1848.0   -2.012   1.099
 1849.0   -2.009   1.088
 1850.0   -2.006   1.077
 1851.0   -2.003   1.066
 1852.0   -2.000   1.055
 1853.0   -1.997   1.043
 1854.0   -1.994   1.032
 1855.0   -1.991   1.020
 1856.0   -1.987   1.008
 1857.0   -1.984   0.996
 1858.0   -1.980   0.984
 1859.0   -1.976   0.972
 1860.0   -1.972   0.959
 1861.0   -1.968   0.946
 1862.0   -1.963   0.934
 1863.0   -1.958   0.921
 1864.0   -1.954   0.907
 1865.0   -1.948   0.894
 1866.0   -1.943   0.881
 1867.0   -1.937   0.867
 1868.0   -1.931   0.853
 1869.0   -1.924   0.839
 1870.0   -1.917   0.825
 1871.0   -1.910   0.811
 1872.0   -1.902   0.797
 1873.0   -1.894   0.783
 1874.0   -1.886   0.769
 1875.0   -1.877   0.754
 1876.0   -1.867   0.740
 1877.0   -1.857   0.726
 1878.0   -1.847   0.712
 1879.0   -1.835   0.698
 1880.0   -1.824   0.684
 1881.0   -1.812   0.671
 1882.0   -1.799   0.657
 1883.0   -1.786   0.644
 1884.0   -1.772   0.632
 1885.0   -1.757   0.619
 1886.0   -1.742   0.607
 1887.0   -1.727   0.596
 1888.0   -1.711   0.585
 1889.0   -1.695   0.575
 1890.0   -1.678   0.565
 1891.0   -1.661   0.556
 1892.0   -1.644   0.548
 1893.0   -1.626   0.540
 1894.0   -1.608   0.533
 1895.0   -1.590   0.527
 1896.0   -1.572   0.522
 1897.0   -1.554   0.517
 1898.0   -1.536   0.513
 1899.0   -1.518   0.510
 1900.0   -1.500   0.508
 1901.0   -1.482   0.507
 1902.0   -1.465   0.506
 1903.0   -1.448   0.506
 1904.0   -1.431   0.507
 1905.0   -1.415   0.508
 1906.0   -1.399   0.510
 1907.0   -1.383   0.512
 1908.0   -1.368   0.515
 1909.0   -1.354   0.518
 1910.0   -1.340   0.522
 1911.0   -1.326   0.526
 1912.0   -1.314   0.530
 1913.0   -1.301   0.535
 1914.0   -1.290   0.540
 1915.0   -1.279   0.545
 1916.0   -1.268   0.550
 1917.0   -1.258   0.555
 1918.0   -1.248   0.561
 1919.0   -1.239   0.566
 1920.0   -1.231   0.572
 1921.0   -1.223   0.577
 1922.0   -1.215   0.582
 1923.0   -1.208   0.588
 1924.0   -1.201   0.593
 1925.0   -1.195   0.598
 1926.0   -1.189   0.603
 1927.0   -1.183   0.608
 1928.0   -1.178   0.612
 1929.0   -1.173   0.617
 1930.0   -1.168   0.621
 1931.0   -1.164   0.625
 1932.0   -1.160   0.630
 1933.0   -1.156   0.633
 1934.0   -1.152   0.637
 1935.0   -1.149   0.641
 1936.0   -1.145   0.644
 1937.0   -1.142   0.647
 1938.0   -1.139   0.650
 1939.0   -1.136   0.653
 1940.0   -1.133   0.656
 1941.0   -1.131   0.659
 1942.0   -1.128   0.661
 1943.0   -1.126   0.663
 1944.0   -1.124   0.665
 1945.0   -1.122   0.667
 1946.0   -1.120   0.669
 1947.0   -1.117   0.671
 1948.0   -1.116   0.672
 1949.0   -1.114   0.674
 1950.0   -1.112   0.675
 1951.0   -1.110   0.676
 1952.0   -1.108   0.677
 1953.0   -1.107   0.678
 1954.0   -1.105   0.679
 1955.0   -1.103   0.680
 1956.0   -1.102   0.680
 1957.0   -1.100   0.681
 1958.0   -1.098   0.681
 1959.0   -1.097   0.682
 1960.0   -1.095   0.682
 1961.0   -1.094   0.682
 1962.0   -1.092   0.682
 1963.0   -1.091   0.682
 1964.0   -1.089   0.682
 1965.0   -1.088   0.682
 1966.0   -1.086   0.681
 1967.0   -1.085   0.681
 1968.0   -1.083   0.681
 1969.0   -1.082   0.680
 1970.0   -1.080   0.680
 1971.0   -1.079   0.679
 1972.0   -1.077   0.679
 1973.0   -1.076   0.678
 1974.0   -1.074   0.677
 1975.0   -1.073   0.677
 1976.0   -1.071   0.676
 1977.0   -1.070   0.675
 1978.0   -1.068   0.674
 1979.0   -1.067   0.673
 1980.0   -1.065   0.672
 1981.0   -1.064   0.671
 1982.0   -1.062   0.670
 1983.0   -1.061   0.669
 1984.0   -1.059   0.668
 1985.0   -1.058   0.667
 1986.0   -1.056   0.666
 1987.0   -1.054   0.665
 1988.0   -1.053   0.664
 1989.0   -1.051   0.662
 1990.0   -1.050   0.661
 1991.0   -1.048   0.660
 1992.0   -1.046   0.659
 1993.0   -1.045   0.657
 1994.0   -1.043   0.656
 1995.0   -1.042   0.655
 1996.0   -1.040   0.653
 1997.0   -1.038   0.652
 1998.0   -1.037   0.650
 1999.0   -1.035   0.649
 2000.0   -1.033   0.648
 2001.0   -1.032   0.646
 2002.0   -1.030   0.645
 2003.0   -1.028   0.643
 2004.0   -1.027   0.642
 2005.0   -1.025   0.640
 2006.0   -1.023   0.639
 2007.0   -1.021   0.637
 2008.0   -1.020   0.636
 2009.0   -1.018   0.634
 2010.0   -1.016   0.633
 2011.0   -1.015   0.631
 2012.0   -1.013   0.629
 2013.0   -1.011   0.628
 2014.0   -1.009   0.626
 2015.0   -1.008   0.625
 2016.0   -1.006   0.623
 2017.0   -1.004   0.622
 2018.0   -1.002   0.620
 2019.0   -1.001   0.618
 2020.0   -0.999   0.617
 2021.0   -0.997   0.615
 2022.0   -0.995   0.613
 2023.0   -0.993   0.612
 2024.0   -0.992   0.610
 2025.0   -0.990   0.609
 2026.0   -0.988   0.607
 2027.0   -0.986   0.605
 2028.0   -0.984   0.604
 2029.0   -0.983   0.602
 2030.0   -0.981   0.600
 2031.0   -0.979   0.599
 2032.0   -0.977   0.597
 2033.0   -0.975   0.596
 2034.0   -0.974   0.594
 2035.0   -0.972   0.592
 2036.0   -0.970   0.591
 2037.0   -0.968   0.589
 2038.0   -0.966   0.587
 2039.0   -0.964   0.586
 2040.0   -0.963   0.584
 2041.0   -0.961   0.583
 2042.0   -0.959   0.581
 2043.0   -0.957   0.579
 2044.0   -0.955   0.578
 2045.0   -0.954   0.576
 2046.0   -0.952   0.574
 2047.0   -0.950   0.573
 2048.0   -0.948   0.571
 2049.0   -0.946   0.570
 2050.0   -0.944   0.568
 2051.0   -0.943   0.566
 2052.0   -0.941   0.565
 2053.0   -0.939   0.563
 2054.0   -0.937   0.561
 2055.0   -0.935   0.560
 2056.0   -0.933   0.558
 2057.0   -0.932   0.557
 2058.0   -0.930   0.555
 2059.0   -0.928   0.553
 2060.0   -0.926   0.552
 2061.0   -0.924   0.550
 2062.0   -0.922   0.549
 2063.0   -0.921   0.547
 2064.0   -0.919   0.546
 2065.0   -0.917   0.544
 2066.0   -0.915   0.542
 2067.0   -0.913   0.541
 2068.0   -0.911   0.539
 2069.0   -0.910   0.538
 2070.0   -0.908   0.536
 2071.0   -0.906   0.535
 2072.0   -0.904   0.533
 2073.0   -0.902   0.532
 2074.0   -0.900   0.530
 2075.0   -0.899   0.528
 2076.0   -0.897   0.527
 2077.0   -0.895   0.525
 2078.0   -0.893   0.524
 2079.0   -0.891   0.522
 2080.0   -0.890   0.521
 2081.0   -0.888   0.519
 2082.0   -0.886   0.518
 2083.0   -0.884   0.516
 2084.0   -0.882   0.515
 2085.0   -0.881   0.513
 2086.0   -0.879   0.512
 2087.0   -0.877   0.510
 2088.0   -0.875   0.509
 2089.0   -0.873   0.507
 2090.0   -0.872   0.506
 2091.0   -0.870   0.504
 2092.0   -0.868   0.503
 2093.0   -0.866   0.502
 2094.0   -0.864   0.500
 2095.0   -0.863   0.499
 2096.0   -0.861   0.497
 2097.0   -0.859   0.496
 2098.0   -0.857   0.494
 2099.0   -0.855   0.493
 2100.0   -0.854   0.491
 2101.0   -0.852   0.490
 2102.0   -0.850   0.489
 2103.0   -0.848   0.487
 2104.0   -0.847   0.486
 2105.0   -0.845   0.484
 2106.0   -0.843   0.483
 2107.0   -0.841   0.482
 2108.0   -0.840   0.480
 2109.0   -0.838   0.479
 2110.0   -0.836   0.477
 2111.0   -0.834   0.476
 2112.0   -0.833   0.475
 2113.0   -0.831   0.473
 2114.0   -0.829   0.472
 2115.0   -0.827   0.470
 2116.0   -0.826   0.469
 2117.0   -0.824   0.468
 2118.0   -0.822   0.466
 2119.0   -0.821   0.465
 2120.0   -0.819   0.464
 2121.0   -0.817   0.462
 2122.0   -0.815   0.461
 2123.0   -0.814   0.460
 2124.0   -0.812   0.458
 2125.0   -0.810   0.457
 2126.0   -0.809   0.456
 2127.0   -0.807   0.454
 2128.0   -0.805   0.453
 2129.0   -0.804   0.452
 2130.0   -0.802   0.451
 2131.0   -0.800   0.449
 2132.0   -0.798   0.448
 2133.0   -0.797   0.447
 2134.0   -0.795   0.445
 2135.0   -0.793   0.444
 2136.0   -0.792   0.443
 2137.0   -0.790   0.442
 2138.0   -0.788   0.440
 2139.0   -0.787   0.439
 2140.0   -0.785   0.438
 2141.0   -0.783   0.437
 2142.0   -0.782   0.435
 2143.0   -0.780   0.434
 2144.0   -0.779   0.433
 2145.0   -0.777   0.432
 2146.0   -0.775   0.430
 2147.0   -0.774   0.429
 2148.0   -0.772   0.428
 2149.0   -0.770   0.427
 2150.0   -0.769   0.426
 2151.0   -0.767   0.424
 2152.0   -0.765   0.423
 2153.0   -0.764   0.422
 2154.0   -0.762   0.421
 2155.0   -0.761   0.420
 2156.0   -0.759   0.418
 2157.0   -0.757   0.417
 2158.0   -0.756   0.416
 2159.0   -0.754   0.415
 2160.0   -0.753   0.414
 2161.0   -0.751   0.413
 2162.0   -0.749   0.411
 2163.0   -0.748   0.410
 2164.0   -0.746   0.409
 2165.0   -0.745   0.408
 2166.0   -0.743   0.407
 2167.0   -0.742   0.406
 2168.0   -0.740   0.405
 2169.0   -0.738   0.403
 2170.0   -0.737   0.402
 2171.0   -0.735   0.401
 2172.0   -0.734   0.400
 2173.0   -0.732   0.399
 2174.0   -0.731   0.398
 2175.0   -0.729   0.397
 2176.0   -0.728   0.396
 2177.0   -0.726   0.394
 2178.0   -0.725   0.393
 2179.0   -0.723   0.392
 2180.0   -0.721   0.391
 2181.0   -0.720   0.390
 2182.0   -0.718   0.389
 2183.0   -0.717   0.388
 2184.0   -0.715   0.387
 2185.0   -0.714   0.386
 2186.0   -0.712   0.385
 2187.0   -0.711   0.384
 2188.0   -0.709   0.383
 2189.0   -0.708   0.382
 2190.0   -0.706   0.381
 2191.0   -0.705   0.379
 2192.0   -0.703   0.378
 2193.0   -0.702   0.377
 2194.0   -0.700   0.376
 2195.0   -0.699   0.375
 2196.0   -0.698   0.374
 2197.0   -0.696   0.373
 2198.0   -0.695   0.372
 2199.0   -0.693   0.371
 2200.0   -0.692   0.370
