   W           M1+(p)
 (MeV)       Re      Im
 1487.0     0.050  -0.015
 1488.0     0.073  -0.022
 1489.0     0.091  -0.027
 1490.0     0.106  -0.032
 1491.0     0.119  -0.036
 1492.0     0.131  -0.040
 1493.0     0.142  -0.044
 1494.0     0.152  -0.048
 1495.0     0.161  -0.051
 1496.0     0.170  -0.054
 1497.0     0.179  -0.058
 1498.0     0.187  -0.061
 1499.0     0.195  -0.064
 1500.0     0.203  -0.067
 1501.0     0.210  -0.070
 1502.0     0.218  -0.073
 1503.0     0.225  -0.076
 1504.0     0.232  -0.079
 1505.0     0.238  -0.082
 1506.0     0.245  -0.085
 1507.0     0.252  -0.088
 1508.0     0.258  -0.091
 1509.0     0.264  -0.093
 1510.0     0.271  -0.096
 1511.0     0.277  -0.099
 1512.0     0.283  -0.102
 1513.0     0.289  -0.105
 1514.0     0.295  -0.108
 1515.0     0.301  -0.110
 1516.0     0.306  -0.113
 1517.0     0.312  -0.116
 1518.0     0.318  -0.119
 1519.0     0.324  -0.122
 1520.0     0.329  -0.124
 1521.0     0.335  -0.127
 1522.0     0.341  -0.130
 1523.0     0.346  -0.133
 1524.0     0.352  -0.135
 1525.0     0.357  -0.138
 1526.0     0.363  -0.141
 1527.0     0.369  -0.143
 1528.0     0.374  -0.146
 1529.0     0.380  -0.149
 1530.0     0.385  -0.152
 1531.0     0.391  -0.154
 1532.0     0.396  -0.157
 1533.0     0.402  -0.159
 1534.0     0.407  -0.162
 1535.0     0.413  -0.165
 1536.0     0.418  -0.167
 1537.0     0.424  -0.170
 1538.0     0.429  -0.172
 1539.0     0.435  -0.175
 1540.0     0.441  -0.178
 1541.0     0.446  -0.180
 1542.0     0.452  -0.183
 1543.0     0.457  -0.185
 1544.0     0.463  -0.188
 1545.0     0.469  -0.190
 1546.0     0.474  -0.192
 1547.0     0.480  -0.195
 1548.0     0.486  -0.197
 1549.0     0.491  -0.200
 1550.0     0.497  -0.202
 1551.0     0.503  -0.204
 1552.0     0.509  -0.206
 1553.0     0.515  -0.209
 1554.0     0.520  -0.211
 1555.0     0.526  -0.213
 1556.0     0.532  -0.215
 1557.0     0.538  -0.217
 1558.0     0.544  -0.219
 1559.0     0.550  -0.221
 1560.0     0.556  -0.223
 1561.0     0.562  -0.225
 1562.0     0.568  -0.227
 1563.0     0.574  -0.229
 1564.0     0.580  -0.231
 1565.0     0.586  -0.233
 1566.0     0.592  -0.235
 1567.0     0.598  -0.236
 1568.0     0.604  -0.238
 1569.0     0.610  -0.240
 1570.0     0.616  -0.241
 1571.0     0.622  -0.243
 1572.0     0.629  -0.244
 1573.0     0.635  -0.246
 1574.0     0.641  -0.247
 1575.0     0.647  -0.249
 1576.0     0.654  -0.250
 1577.0     0.660  -0.251
 1578.0     0.666  -0.253
 1579.0     0.672  -0.254
 1580.0     0.679  -0.255
 1581.0     0.685  -0.256
 1582.0     0.691  -0.257
 1583.0     0.698  -0.258
 1584.0     0.704  -0.259
 1585.0     0.711  -0.260
 1586.0     0.717  -0.261
 1587.0     0.723  -0.261
 1588.0     0.730  -0.262
 1589.0     0.736  -0.263
 1590.0     0.743  -0.263
 1591.0     0.749  -0.264
 1592.0     0.756  -0.264
 1593.0     0.762  -0.265
 1594.0     0.768  -0.265
 1595.0     0.775  -0.266
 1596.0     0.781  -0.266
 1597.0     0.788  -0.266
 1598.0     0.794  -0.266
 1599.0     0.801  -0.266
 1600.0     0.807  -0.266
 1601.0     0.814  -0.266
 1602.0     0.820  -0.266
 1603.0     0.827  -0.266
 1604.0     0.833  -0.266
 1605.0     0.840  -0.266
 1606.0     0.846  -0.265
 1607.0     0.853  -0.265
 1608.0     0.859  -0.264
 1609.0     0.866  -0.264
 1610.0     0.872  -0.263
 1611.0     0.878  -0.263
 1612.0     0.885  -0.262
 1613.0     0.891  -0.261
 1614.0     0.898  -0.261
 1615.0     0.904  -0.260
 1616.0     0.910  -0.259
 1617.0     0.917  -0.258
 1618.0     0.923  -0.257
 1619.0     0.930  -0.256
 1620.0     0.936  -0.255
 1621.0     0.942  -0.254
 1622.0     0.949  -0.252
 1623.0     0.955  -0.251
 1624.0     0.961  -0.250
 1625.0     0.967  -0.248
 1626.0     0.974  -0.247
 1627.0     0.980  -0.245
 1628.0     0.986  -0.244
 1629.0     0.992  -0.242
 1630.0     0.998  -0.240
 1631.0     1.005  -0.239
 1632.0     1.011  -0.237
 1633.0     1.017  -0.235
 1634.0     1.023  -0.233
 1635.0     1.029  -0.231
 1636.0     1.035  -0.229
 1637.0     1.041  -0.227
 1638.0     1.047  -0.225
 1639.0     1.053  -0.223
 1640.0     1.059  -0.221
 1641.0     1.065  -0.219
 1642.0     1.071  -0.216
 1643.0     1.076  -0.214
 1644.0     1.082  -0.211
 1645.0     1.088  -0.209
 1646.0     1.094  -0.207
 1647.0     1.100  -0.204
 1648.0     1.105  -0.201
 1649.0     1.111  -0.199
 1650.0     1.117  -0.196
 1651.0     1.122  -0.193
 1652.0     1.128  -0.191
 1653.0     1.133  -0.188
 1654.0     1.139  -0.185
 1655.0     1.145  -0.182
 1656.0     1.150  -0.179
 1657.0     1.155  -0.176
 1658.0     1.161  -0.173
 1659.0     1.166  -0.170
 1660.0     1.172  -0.167
 1661.0     1.177  -0.163
 1662.0     1.182  -0.160
 1663.0     1.187  -0.157
 1664.0     1.193  -0.154
 1665.0     1.198  -0.150
 1666.0     1.203  -0.147
 1667.0     1.208  -0.143
 1668.0     1.213  -0.140
 1669.0     1.218  -0.136
 1670.0     1.223  -0.133
 1671.0     1.228  -0.129
 1672.0     1.233  -0.126
 1673.0     1.238  -0.122
 1674.0     1.243  -0.118
 1675.0     1.248  -0.114
 1676.0     1.252  -0.111
 1677.0     1.257  -0.107
 1678.0     1.262  -0.103
 1679.0     1.267  -0.099
 1680.0     1.271  -0.095
 1681.0     1.276  -0.091
 1682.0     1.280  -0.087
 1683.0     1.285  -0.083
 1684.0     1.289  -0.079
 1685.0     1.294  -0.075
 1686.0     1.298  -0.071
 1687.0     1.303  -0.067
 1688.0     1.307  -0.062
 1689.0     1.311  -0.058
 1690.0     1.316  -0.054
 1691.0     1.320  -0.049
 1692.0     1.324  -0.045
 1693.0     1.328  -0.041
 1694.0     1.332  -0.036
 1695.0     1.336  -0.032
 1696.0     1.340  -0.027
 1697.0     1.344  -0.023
 1698.0     1.348  -0.018
 1699.0     1.352  -0.014
 1700.0     1.356  -0.009
 1701.0     1.360  -0.004
 1702.0     1.363   0.000
 1703.0     1.367   0.005
 1704.0     1.371   0.010
 1705.0     1.374   0.015
 1706.0     1.378   0.019
 1707.0     1.381   0.024
 1708.0     1.385   0.029
 1709.0     1.388   0.034
 1710.0     1.392   0.039
 1711.0     1.395   0.044
 1712.0     1.399   0.049
 1713.0     1.402   0.054
 1714.0     1.405   0.059
 1715.0     1.408   0.064
 1716.0     1.411   0.069
 1717.0     1.414   0.074
 1718.0     1.417   0.079
 1719.0     1.420   0.085
 1720.0     1.423   0.090
 1721.0     1.426   0.095
 1722.0     1.429   0.100
 1723.0     1.432   0.106
 1724.0     1.435   0.111
 1725.0     1.437   0.116
 1726.0     1.440   0.121
 1727.0     1.443   0.127
 1728.0     1.445   0.132
 1729.0     1.448   0.138
 1730.0     1.450   0.143
 1731.0     1.453   0.149
 1732.0     1.455   0.154
 1733.0     1.457   0.160
 1734.0     1.460   0.165
 1735.0     1.462   0.171
 1736.0     1.464   0.176
 1737.0     1.466   0.182
 1738.0     1.468   0.187
 1739.0     1.470   0.193
 1740.0     1.472   0.199
 1741.0     1.474   0.204
 1742.0     1.476   0.210
 1743.0     1.478   0.216
 1744.0     1.480   0.221
 1745.0     1.481   0.227
 1746.0     1.483   0.233
 1747.0     1.485   0.239
 1748.0     1.486   0.244
 1749.0     1.488   0.250
 1750.0     1.489   0.256
 1751.0     1.490   0.262
 1752.0     1.492   0.268
 1753.0     1.493   0.274
 1754.0     1.494   0.280
 1755.0     1.495   0.285
 1756.0     1.496   0.291
 1757.0     1.497   0.297
 1758.0     1.498   0.303
 1759.0     1.499   0.309
 1760.0     1.500   0.315
 1761.0     1.501   0.321
 1762.0     1.502   0.327
 1763.0     1.502   0.333
 1764.0     1.503   0.339
 1765.0     1.504   0.345
 1766.0     1.504   0.351
 1767.0     1.505   0.357
 1768.0     1.505   0.363
 1769.0     1.505   0.369
 1770.0     1.506   0.375
 1771.0     1.506   0.381
 1772.0     1.506   0.387
 1773.0     1.506   0.393
 1774.0     1.506   0.399
 1775.0     1.506   0.405
 1776.0     1.506   0.411
 1777.0     1.506   0.417
 1778.0     1.506   0.423
 1779.0     1.505   0.429
 1780.0     1.505   0.435
 1781.0     1.505   0.441
 1782.0     1.504   0.447
 1783.0     1.504   0.453
 1784.0     1.503   0.459
 1785.0     1.503   0.465
 1786.0     1.502   0.471
 1787.0     1.501   0.477
 1788.0     1.500   0.483
 1789.0     1.499   0.489
 1790.0     1.498   0.495
 1791.0     1.497   0.501
 1792.0     1.496   0.507
 1793.0     1.495   0.513
 1794.0     1.494   0.519
 1795.0     1.493   0.525
 1796.0     1.491   0.531
 1797.0     1.490   0.537
 1798.0     1.488   0.543
 1799.0     1.487   0.549
 1800.0     1.485   0.555
 1801.0     1.484   0.560
 1802.0     1.482   0.566
 1803.0     1.480   0.572
 1804.0     1.478   0.578
 1805.0     1.477   0.584
 1806.0     1.475   0.589
 1807.0     1.473   0.595
 1808.0     1.471   0.601
 1809.0     1.468   0.607
 1810.0     1.466   0.612
 1811.0     1.464   0.618
 1812.0     1.462   0.623
 1813.0     1.459   0.629
 1814.0     1.457   0.635
 1815.0     1.454   0.640
 1816.0     1.452   0.646
 1817.0     1.449   0.651
 1818.0     1.446   0.657
 1819.0     1.444   0.662
 1820.0     1.441   0.667
 1821.0     1.438   0.673
 1822.0     1.435   0.678
 1823.0     1.432   0.683
 1824.0     1.429   0.689
 1825.0     1.426   0.694
 1826.0     1.423   0.699
 1827.0     1.420   0.704
 1828.0     1.417   0.709
 1829.0     1.413   0.714
 1830.0     1.410   0.719
 1831.0     1.406   0.724
 1832.0     1.403   0.729
 1833.0     1.400   0.734
 1834.0     1.396   0.739
 1835.0     1.392   0.744
 1836.0     1.389   0.749
 1837.0     1.385   0.753
 1838.0     1.381   0.758
 1839.0     1.377   0.763
 1840.0     1.374   0.767
 1841.0     1.370   0.772
 1842.0     1.366   0.776
 1843.0     1.362   0.781
 1844.0     1.358   0.785
 1845.0     1.353   0.789
 1846.0     1.349   0.794
 1847.0     1.345   0.798
 1848.0     1.341   0.802
 1849.0     1.337   0.806
 1850.0     1.332   0.810
 1851.0     1.328   0.815
 1852.0     1.324   0.819
 1853.0     1.319   0.822
 1854.0     1.315   0.826
 1855.0     1.310   0.830
 1856.0     1.306   0.834
 1857.0     1.301   0.838
 1858.0     1.296   0.841
 1859.0     1.292   0.845
 1860.0     1.287   0.849
 1861.0     1.282   0.852
 1862.0     1.278   0.855
 1863.0     1.273   0.859
 1864.0     1.268   0.862
 1865.0     1.263   0.865
 1866.0     1.258   0.869
 1867.0     1.253   0.872
 1868.0     1.248   0.875
 1869.0     1.243   0.878
 1870.0     1.238   0.881
 1871.0     1.233   0.884
 1872.0     1.228   0.887
 1873.0     1.223   0.889
 1874.0     1.218   0.892
 1875.0     1.213   0.895
 1876.0     1.208   0.897
 1877.0     1.203   0.900
 1878.0     1.198   0.903
 1879.0     1.193   0.905
 1880.0     1.187   0.907
 1881.0     1.182   0.910
 1882.0     1.177   0.912
 1883.0     1.172   0.914
 1884.0     1.167   0.916
 1885.0     1.161   0.918
 1886.0     1.156   0.920
 1887.0     1.151   0.922
 1888.0     1.146   0.924
 1889.0     1.140   0.926
 1890.0     1.135   0.928
 1891.0     1.130   0.929
 1892.0     1.124   0.931
 1893.0     1.119   0.932
 1894.0     1.114   0.934
 1895.0     1.108   0.935
 1896.0     1.103   0.937
 1897.0     1.098   0.938
 1898.0     1.092   0.939
 1899.0     1.087   0.941
 1900.0     1.082   0.942
 1901.0     1.076   0.943
 1902.0     1.071   0.944
 1903.0     1.066   0.945
 1904.0     1.060   0.946
 1905.0     1.055   0.947
 1906.0     1.050   0.947
 1907.0     1.044   0.948
 1908.0     1.039   0.949
 1909.0     1.034   0.949
 1910.0     1.029   0.950
 1911.0     1.023   0.951
 1912.0     1.018   0.951
 1913.0     1.013   0.951
 1914.0     1.008   0.952
 1915.0     1.002   0.952
 1916.0     0.997   0.952
 1917.0     0.992   0.952
 1918.0     0.987   0.953
 1919.0     0.982   0.953
 1920.0     0.976   0.953
 1921.0     0.971   0.953
 1922.0     0.966   0.953
 1923.0     0.961   0.952
 1924.0     0.956   0.952
 1925.0     0.951   0.952
 1926.0     0.946   0.952
 1927.0     0.941   0.951
 1928.0     0.936   0.951
 1929.0     0.931   0.951
 1930.0     0.926   0.950
 1931.0     0.921   0.950
 1932.0     0.916   0.949
 1933.0     0.911   0.948
 1934.0     0.906   0.948
 1935.0     0.901   0.947
 1936.0     0.897   0.946
 1937.0     0.892   0.946
 1938.0     0.887   0.945
 1939.0     0.882   0.944
 1940.0     0.878   0.943
 1941.0     0.873   0.942
 1942.0     0.868   0.941
 1943.0     0.863   0.940
 1944.0     0.859   0.939
 1945.0     0.854   0.938
 1946.0     0.850   0.937
 1947.0     0.845   0.935
 1948.0     0.841   0.934
 1949.0     0.836   0.933
 1950.0     0.832   0.931
 1951.0     0.827   0.930
 1952.0     0.823   0.929
 1953.0     0.818   0.927
 1954.0     0.814   0.926
 1955.0     0.810   0.924
 1956.0     0.806   0.923
 1957.0     0.801   0.921
 1958.0     0.797   0.920
 1959.0     0.793   0.918
 1960.0     0.789   0.916
 1961.0     0.785   0.915
 1962.0     0.780   0.913
 1963.0     0.776   0.911
 1964.0     0.772   0.910
 1965.0     0.768   0.908
 1966.0     0.764   0.906
 1967.0     0.760   0.904
 1968.0     0.757   0.902
 1969.0     0.753   0.900
 1970.0     0.749   0.898
 1971.0     0.745   0.897
 1972.0     0.741   0.895
 1973.0     0.738   0.893
 1974.0     0.734   0.891
 1975.0     0.730   0.888
 1976.0     0.727   0.886
 1977.0     0.723   0.884
 1978.0     0.719   0.882
 1979.0     0.716   0.880
 1980.0     0.712   0.878
 1981.0     0.709   0.876
 1982.0     0.705   0.874
 1983.0     0.702   0.871
 1984.0     0.699   0.869
 1985.0     0.695   0.867
 1986.0     0.692   0.865
 1987.0     0.689   0.862
 1988.0     0.685   0.860
 1989.0     0.682   0.858
 1990.0     0.679   0.855
 1991.0     0.676   0.853
 1992.0     0.673   0.851
 1993.0     0.669   0.848
 1994.0     0.666   0.846
 1995.0     0.663   0.844
 1996.0     0.660   0.841
 1997.0     0.657   0.839
 1998.0     0.654   0.836
 1999.0     0.652   0.834
 2000.0     0.649   0.832
 2001.0     0.646   0.829
 2002.0     0.643   0.827
 2003.0     0.640   0.824
 2004.0     0.638   0.822
 2005.0     0.635   0.819
 2006.0     0.632   0.817
 2007.0     0.629   0.814
 2008.0     0.627   0.812
 2009.0     0.624   0.809
 2010.0     0.622   0.806
 2011.0     0.619   0.804
 2012.0     0.617   0.801
 2013.0     0.614   0.799
 2014.0     0.612   0.796
 2015.0     0.609   0.794
 2016.0     0.607   0.791
 2017.0     0.604   0.789
 2018.0     0.602   0.786
 2019.0     0.600   0.783
 2020.0     0.598   0.781
 2021.0     0.595   0.778
 2022.0     0.593   0.776
 2023.0     0.591   0.773
 2024.0     0.589   0.770
 2025.0     0.587   0.768
 2026.0     0.584   0.765
 2027.0     0.582   0.762
 2028.0     0.580   0.760
 2029.0     0.578   0.757
 2030.0     0.576   0.755
 2031.0     0.574   0.752
 2032.0     0.572   0.749
 2033.0     0.570   0.747
 2034.0     0.569   0.744
 2035.0     0.567   0.742
 2036.0     0.565   0.739
 2037.0     0.563   0.736
 2038.0     0.561   0.734
 2039.0     0.559   0.731
 2040.0     0.558   0.728
 2041.0     0.556   0.726
 2042.0     0.554   0.723
 2043.0     0.553   0.721
 2044.0     0.551   0.718
 2045.0     0.549   0.715
 2046.0     0.548   0.713
 2047.0     0.546   0.710
 2048.0     0.545   0.707
 2049.0     0.543   0.705
 2050.0     0.542   0.702
 2051.0     0.540   0.700
 2052.0     0.539   0.697
 2053.0     0.537   0.695
 2054.0     0.536   0.692
 2055.0     0.534   0.689
 2056.0     0.533   0.687
 2057.0     0.532   0.684
 2058.0     0.530   0.682
 2059.0     0.529   0.679
 2060.0     0.528   0.676
 2061.0     0.526   0.674
 2062.0     0.525   0.671
 2063.0     0.524   0.669
 2064.0     0.523   0.666
 2065.0     0.521   0.664
 2066.0     0.520   0.661
 2067.0     0.519   0.659
 2068.0     0.518   0.656
 2069.0     0.517   0.654
 2070.0     0.516   0.651
 2071.0     0.515   0.649
 2072.0     0.514   0.646
 2073.0     0.513   0.644
 2074.0     0.512   0.641
 2075.0     0.511   0.639
 2076.0     0.510   0.636
 2077.0     0.509   0.634
 2078.0     0.508   0.631
 2079.0     0.507   0.629
 2080.0     0.506   0.626
 2081.0     0.505   0.624
 2082.0     0.504   0.621
 2083.0     0.503   0.619
 2084.0     0.502   0.617
 2085.0     0.501   0.614
 2086.0     0.501   0.612
 2087.0     0.500   0.609
 2088.0     0.499   0.607
 2089.0     0.498   0.604
 2090.0     0.498   0.602
 2091.0     0.497   0.600
 2092.0     0.496   0.597
 2093.0     0.495   0.595
 2094.0     0.495   0.593
 2095.0     0.494   0.590
 2096.0     0.493   0.588
 2097.0     0.493   0.586
 2098.0     0.492   0.583
 2099.0     0.491   0.581
 2100.0     0.491   0.579
 2101.0     0.490   0.576
 2102.0     0.490   0.574
 2103.0     0.489   0.572
 2104.0     0.488   0.569
 2105.0     0.488   0.567
 2106.0     0.487   0.565
 2107.0     0.487   0.563
 2108.0     0.486   0.560
 2109.0     0.486   0.558
 2110.0     0.485   0.556
 2111.0     0.485   0.554
 2112.0     0.485   0.551
 2113.0     0.484   0.549
 2114.0     0.484   0.547
 2115.0     0.483   0.545
 2116.0     0.483   0.543
 2117.0     0.482   0.541
 2118.0     0.482   0.538
 2119.0     0.482   0.536
 2120.0     0.481   0.534
 2121.0     0.481   0.532
 2122.0     0.481   0.530
 2123.0     0.480   0.528
 2124.0     0.480   0.525
 2125.0     0.480   0.523
 2126.0     0.479   0.521
 2127.0     0.479   0.519
 2128.0     0.479   0.517
 2129.0     0.478   0.515
 2130.0     0.478   0.513
 2131.0     0.478   0.511
 2132.0     0.478   0.509
 2133.0     0.477   0.507
 2134.0     0.477   0.505
 2135.0     0.477   0.503
 2136.0     0.477   0.501
 2137.0     0.477   0.499
 2138.0     0.476   0.497
 2139.0     0.476   0.495
 2140.0     0.476   0.493
 2141.0     0.476   0.491
 2142.0     0.476   0.489
 2143.0     0.476   0.487
 2144.0     0.476   0.485
 2145.0     0.475   0.483
 2146.0     0.475   0.481
 2147.0     0.475   0.479
 2148.0     0.475   0.477
 2149.0     0.475   0.475
 2150.0     0.475   0.473
 2151.0     0.475   0.471
 2152.0     0.475   0.469
 2153.0     0.475   0.467
 2154.0     0.475   0.466
 2155.0     0.475   0.464
 2156.0     0.475   0.462
 2157.0     0.474   0.460
 2158.0     0.474   0.458
 2159.0     0.474   0.456
 2160.0     0.474   0.454
 2161.0     0.474   0.453
 2162.0     0.474   0.451
 2163.0     0.474   0.449
 2164.0     0.474   0.447
 2165.0     0.474   0.445
 2166.0     0.474   0.444
 2167.0     0.474   0.442
 2168.0     0.475   0.440
 2169.0     0.475   0.438
 2170.0     0.475   0.437
 2171.0     0.475   0.435
 2172.0     0.475   0.433
 2173.0     0.475   0.431
 2174.0     0.475   0.430
 2175.0     0.475   0.428
 2176.0     0.475   0.426
 2177.0     0.475   0.424
 2178.0     0.475   0.423
 2179.0     0.475   0.421
 2180.0     0.475   0.419
 2181.0     0.475   0.418
 2182.0     0.476   0.416
 2183.0     0.476   0.414
 2184.0     0.476   0.413
 2185.0     0.476   0.411
 2186.0     0.476   0.409
 2187.0     0.476   0.408
 2188.0     0.476   0.406
 2189.0     0.477   0.405
 2190.0     0.477   0.403
 2191.0     0.477   0.401
 2192.0     0.477   0.400
 2193.0     0.477   0.398
 2194.0     0.477   0.397
 2195.0     0.477   0.395
 2196.0     0.478   0.393
 2197.0     0.478   0.392
 2198.0     0.478   0.390
 2199.0     0.478   0.389
 2200.0     0.478   0.387
