   W         M3-(pi0_p)
 (MeV)      Re         Im
 1074.0    0.000005   0.000002
 1075.0    0.000003   0.000001
 1076.0    0.000000   0.000000
 1077.0   -0.000002  -0.000000
 1078.0   -0.000005  -0.000001
 1079.0   -0.000007  -0.000002
 1080.0   -0.000010  -0.000002
 1081.0   -0.000012  -0.000003
 1082.0   -0.000015  -0.000004
 1083.0   -0.000017  -0.000004
 1084.0   -0.000020  -0.000005
 1085.0   -0.000023  -0.000006
 1086.0   -0.000026  -0.000007
 1087.0   -0.000029  -0.000008
 1088.0   -0.000032  -0.000009
 1089.0   -0.000035  -0.000010
 1090.0   -0.000038  -0.000011
 1091.0   -0.000041  -0.000012
 1092.0   -0.000045  -0.000014
 1093.0   -0.000048  -0.000015
 1094.0   -0.000052  -0.000016
 1095.0   -0.000055  -0.000018
 1096.0   -0.000059  -0.000019
 1097.0   -0.000063  -0.000021
 1098.0   -0.000066  -0.000022
 1099.0   -0.000070  -0.000024
 1100.0   -0.000074  -0.000026
 1101.0   -0.000077  -0.000028
 1102.0   -0.000081  -0.000030
 1103.0   -0.000085  -0.000032
 1104.0   -0.000089  -0.000034
 1105.0   -0.000092  -0.000036
 1106.0   -0.000096  -0.000038
 1107.0   -0.000100  -0.000041
 1108.0   -0.000103  -0.000043
 1109.0   -0.000107  -0.000046
 1110.0   -0.000111  -0.000048
 1111.0   -0.000114  -0.000051
 1112.0   -0.000118  -0.000054
 1113.0   -0.000121  -0.000057
 1114.0   -0.000125  -0.000060
 1115.0   -0.000128  -0.000063
 1116.0   -0.000132  -0.000066
 1117.0   -0.000135  -0.000070
 1118.0   -0.000138  -0.000073
 1119.0   -0.000141  -0.000077
 1120.0   -0.000144  -0.000080
 1121.0   -0.000147  -0.000084
 1122.0   -0.000149  -0.000088
 1123.0   -0.000152  -0.000092
 1124.0   -0.000154  -0.000096
 1125.0   -0.000157  -0.000100
 1126.0   -0.000159  -0.000104
 1127.0   -0.000161  -0.000109
 1128.0   -0.000163  -0.000114
 1129.0   -0.000164  -0.000118
 1130.0   -0.000166  -0.000123
 1131.0   -0.000167  -0.000128
 1132.0   -0.000168  -0.000133
 1133.0   -0.000169  -0.000138
 1134.0   -0.000170  -0.000144
 1135.0   -0.000171  -0.000149
 1136.0   -0.000171  -0.000155
 1137.0   -0.000170  -0.000161
 1138.0   -0.000170  -0.000167
 1139.0   -0.000170  -0.000173
 1140.0   -0.000169  -0.000179
 1141.0   -0.000168  -0.000185
 1142.0   -0.000166  -0.000192
 1143.0   -0.000165  -0.000199
 1144.0   -0.000163  -0.000205
 1145.0   -0.000161  -0.000212
 1146.0   -0.000158  -0.000219
 1147.0   -0.000155  -0.000227
 1148.0   -0.000151  -0.000234
 1149.0   -0.000148  -0.000242
 1150.0   -0.000145  -0.000249
 1151.0   -0.000140  -0.000258
 1152.0   -0.000134  -0.000266
 1153.0   -0.000129  -0.000274
 1154.0   -0.000124  -0.000283
 1155.0   -0.000119  -0.000291
 1156.0   -0.000111  -0.000301
 1157.0   -0.000104  -0.000310
 1158.0   -0.000096  -0.000319
 1159.0   -0.000089  -0.000328
 1160.0   -0.000082  -0.000338
 1161.0   -0.000072  -0.000348
 1162.0   -0.000062  -0.000358
 1163.0   -0.000052  -0.000369
 1164.0   -0.000042  -0.000379
 1165.0   -0.000032  -0.000389
 1166.0   -0.000019  -0.000400
 1167.0   -0.000006  -0.000412
 1168.0    0.000007  -0.000423
 1169.0    0.000019  -0.000434
 1170.0    0.000032  -0.000446
 1171.0    0.000048  -0.000458
 1172.0    0.000064  -0.000471
 1173.0    0.000080  -0.000483
 1174.0    0.000096  -0.000495
 1175.0    0.000112  -0.000508
 1176.0    0.000132  -0.000521
 1177.0    0.000151  -0.000535
 1178.0    0.000171  -0.000549
 1179.0    0.000190  -0.000562
 1180.0    0.000210  -0.000576
 1181.0    0.000233  -0.000591
 1182.0    0.000257  -0.000606
 1183.0    0.000280  -0.000620
 1184.0    0.000303  -0.000635
 1185.0    0.000327  -0.000650
 1186.0    0.000355  -0.000666
 1187.0    0.000382  -0.000682
 1188.0    0.000410  -0.000698
 1189.0    0.000438  -0.000715
 1190.0    0.000466  -0.000731
 1191.0    0.000498  -0.000748
 1192.0    0.000531  -0.000766
 1193.0    0.000563  -0.000783
 1194.0    0.000596  -0.000800
 1195.0    0.000629  -0.000818
 1196.0    0.000666  -0.000837
 1197.0    0.000704  -0.000856
 1198.0    0.000742  -0.000875
 1199.0    0.000780  -0.000893
 1200.0    0.000817  -0.000912
 1201.0    0.000861  -0.000933
 1202.0    0.000904  -0.000953
 1203.0    0.000948  -0.000973
 1204.0    0.000991  -0.000993
 1205.0    0.001034  -0.001014
 1206.0    0.001084  -0.001036
 1207.0    0.001134  -0.001057
 1208.0    0.001183  -0.001079
 1209.0    0.001233  -0.001101
 1210.0    0.001282  -0.001123
 1211.0    0.001339  -0.001146
 1212.0    0.001395  -0.001170
 1213.0    0.001451  -0.001193
 1214.0    0.001507  -0.001216
 1215.0    0.001564  -0.001240
 1216.0    0.001627  -0.001265
 1217.0    0.001690  -0.001290
 1218.0    0.001754  -0.001315
 1219.0    0.001817  -0.001340
 1220.0    0.001881  -0.001365
 1221.0    0.001952  -0.001391
 1222.0    0.002023  -0.001418
 1223.0    0.002094  -0.001444
 1224.0    0.002165  -0.001471
 1225.0    0.002237  -0.001498
 1226.0    0.002316  -0.001526
 1227.0    0.002396  -0.001554
 1228.0    0.002475  -0.001583
 1229.0    0.002555  -0.001611
 1230.0    0.002634  -0.001639
 1231.0    0.002723  -0.001669
 1232.0    0.002811  -0.001699
 1233.0    0.002899  -0.001729
 1234.0    0.002988  -0.001759
 1235.0    0.003076  -0.001789
 1236.0    0.003174  -0.001821
 1237.0    0.003272  -0.001852
 1238.0    0.003370  -0.001884
 1239.0    0.003468  -0.001916
 1240.0    0.003566  -0.001947
 1241.0    0.003674  -0.001981
 1242.0    0.003782  -0.002014
 1243.0    0.003890  -0.002048
 1244.0    0.003998  -0.002081
 1245.0    0.004107  -0.002115
 1246.0    0.004226  -0.002150
 1247.0    0.004345  -0.002185
 1248.0    0.004464  -0.002220
 1249.0    0.004582  -0.002255
 1250.0    0.004701  -0.002291
 1251.0    0.004832  -0.002328
 1252.0    0.004962  -0.002364
 1253.0    0.005093  -0.002401
 1254.0    0.005223  -0.002438
 1255.0    0.005354  -0.002475
 1256.0    0.005497  -0.002514
 1257.0    0.005639  -0.002552
 1258.0    0.005782  -0.002591
 1259.0    0.005925  -0.002630
 1260.0    0.006068  -0.002668
 1261.0    0.006223  -0.002708
 1262.0    0.006379  -0.002748
 1263.0    0.006535  -0.002788
 1264.0    0.006691  -0.002828
 1265.0    0.006847  -0.002868
 1266.0    0.007016  -0.002911
 1267.0    0.007185  -0.002954
 1268.0    0.007355  -0.002997
 1269.0    0.007524  -0.003040
 1270.0    0.007694  -0.003083
 1271.0    0.007878  -0.003126
 1272.0    0.008061  -0.003169
 1273.0    0.008245  -0.003213
 1274.0    0.008429  -0.003256
 1275.0    0.008613  -0.003299
 1276.0    0.008813  -0.003344
 1277.0    0.009012  -0.003390
 1278.0    0.009212  -0.003435
 1279.0    0.009411  -0.003481
 1280.0    0.009611  -0.003526
 1281.0    0.009826  -0.003573
 1282.0    0.010042  -0.003620
 1283.0    0.010257  -0.003666
 1284.0    0.010472  -0.003713
 1285.0    0.010688  -0.003760
 1286.0    0.010921  -0.003808
 1287.0    0.011153  -0.003856
 1288.0    0.011386  -0.003904
 1289.0    0.011619  -0.003952
 1290.0    0.011852  -0.004000
 1291.0    0.012102  -0.004050
 1292.0    0.012353  -0.004099
 1293.0    0.012603  -0.004149
 1294.0    0.012854  -0.004198
 1295.0    0.013104  -0.004248
 1296.0    0.013374  -0.004298
 1297.0    0.013643  -0.004349
 1298.0    0.013912  -0.004400
 1299.0    0.014182  -0.004451
 1300.0    0.014451  -0.004501
 1301.0    0.014740  -0.004552
 1302.0    0.015030  -0.004604
 1303.0    0.015319  -0.004655
 1304.0    0.015609  -0.004706
 1305.0    0.015898  -0.004757
 1306.0    0.016208  -0.004810
 1307.0    0.016518  -0.004862
 1308.0    0.016828  -0.004915
 1309.0    0.017138  -0.004967
 1310.0    0.017448  -0.005020
 1311.0    0.017780  -0.005073
 1312.0    0.018112  -0.005126
 1313.0    0.018444  -0.005179
 1314.0    0.018775  -0.005232
 1315.0    0.019107  -0.005285
 1316.0    0.019462  -0.005338
 1317.0    0.019817  -0.005391
 1318.0    0.020171  -0.005445
 1319.0    0.020526  -0.005498
 1320.0    0.020881  -0.005552
 1321.0    0.021259  -0.005605
 1322.0    0.021638  -0.005658
 1323.0    0.022017  -0.005710
 1324.0    0.022396  -0.005763
 1325.0    0.022774  -0.005816
 1326.0    0.023178  -0.005869
 1327.0    0.023582  -0.005923
 1328.0    0.023985  -0.005976
 1329.0    0.024389  -0.006029
 1330.0    0.024793  -0.006082
 1331.0    0.025222  -0.006135
 1332.0    0.025652  -0.006187
 1333.0    0.026082  -0.006240
 1334.0    0.026512  -0.006292
 1335.0    0.026942  -0.006345
 1336.0    0.027399  -0.006396
 1337.0    0.027856  -0.006448
 1338.0    0.028314  -0.006499
 1339.0    0.028771  -0.006551
 1340.0    0.029228  -0.006602
 1341.0    0.029714  -0.006652
 1342.0    0.030200  -0.006702
 1343.0    0.030685  -0.006752
 1344.0    0.031171  -0.006802
 1345.0    0.031657  -0.006852
 1346.0    0.032172  -0.006899
 1347.0    0.032687  -0.006946
 1348.0    0.033203  -0.006993
 1349.0    0.033718  -0.007039
 1350.0    0.034233  -0.007086
 1351.0    0.034780  -0.007133
 1352.0    0.035327  -0.007179
 1353.0    0.035874  -0.007226
 1354.0    0.036421  -0.007272
 1355.0    0.036968  -0.007319
 1356.0    0.037547  -0.007361
 1357.0    0.038126  -0.007404
 1358.0    0.038706  -0.007446
 1359.0    0.039285  -0.007488
 1360.0    0.039864  -0.007531
 1361.0    0.040477  -0.007569
 1362.0    0.041090  -0.007608
 1363.0    0.041703  -0.007646
 1364.0    0.042316  -0.007685
 1365.0    0.042929  -0.007723
 1366.0    0.043577  -0.007757
 1367.0    0.044225  -0.007791
 1368.0    0.044873  -0.007825
 1369.0    0.045521  -0.007859
 1370.0    0.046170  -0.007893
 1371.0    0.046855  -0.007922
 1372.0    0.047540  -0.007950
 1373.0    0.048224  -0.007979
 1374.0    0.048909  -0.008008
 1375.0    0.049594  -0.008036
 1376.0    0.050317  -0.008059
 1377.0    0.051041  -0.008081
 1378.0    0.051764  -0.008104
 1379.0    0.052487  -0.008126
 1380.0    0.053210  -0.008148
 1381.0    0.053973  -0.008164
 1382.0    0.054737  -0.008179
 1383.0    0.055500  -0.008194
 1384.0    0.056263  -0.008209
 1385.0    0.057027  -0.008225
 1386.0    0.057830  -0.008232
 1387.0    0.058634  -0.008238
 1388.0    0.059438  -0.008245
 1389.0    0.060242  -0.008252
 1390.0    0.061046  -0.008259
 1391.0    0.061893  -0.008257
 1392.0    0.062741  -0.008254
 1393.0    0.063589  -0.008252
 1394.0    0.064436  -0.008249
 1395.0    0.065284  -0.008247
 1396.0    0.066176  -0.008234
 1397.0    0.067069  -0.008221
 1398.0    0.067961  -0.008208
 1399.0    0.068854  -0.008195
 1400.0    0.069746  -0.008182
 1401.0    0.070685  -0.008157
 1402.0    0.071624  -0.008133
 1403.0    0.072563  -0.008108
 1404.0    0.073503  -0.008083
 1405.0    0.074442  -0.008058
 1406.0    0.075429  -0.008020
 1407.0    0.076417  -0.007981
 1408.0    0.077405  -0.007943
 1409.0    0.078393  -0.007905
 1410.0    0.079381  -0.007866
 1411.0    0.080419  -0.007813
 1412.0    0.081457  -0.007760
 1413.0    0.082496  -0.007707
 1414.0    0.083534  -0.007654
 1415.0    0.084572  -0.007600
 1416.0    0.085663  -0.007530
 1417.0    0.086754  -0.007460
 1418.0    0.087845  -0.007391
 1419.0    0.088936  -0.007321
 1420.0    0.090027  -0.007251
 1421.0    0.091173  -0.007162
 1422.0    0.092319  -0.007074
 1423.0    0.093465  -0.006985
 1424.0    0.094611  -0.006897
 1425.0    0.095756  -0.006808
 1426.0    0.096959  -0.006699
 1427.0    0.098162  -0.006590
 1428.0    0.099365  -0.006481
 1429.0    0.100568  -0.006371
 1430.0    0.101771  -0.006262
 1431.0    0.103034  -0.006130
 1432.0    0.104298  -0.005997
 1433.0    0.105561  -0.005864
 1434.0    0.106825  -0.005731
 1435.0    0.108088  -0.005598
 1436.0    0.109411  -0.005442
 1437.0    0.110733  -0.005286
 1438.0    0.112055  -0.005129
 1439.0    0.113378  -0.004973
 1440.0    0.114700  -0.004816
 1441.0    0.116088  -0.004631
 1442.0    0.117477  -0.004446
 1443.0    0.118865  -0.004260
 1444.0    0.120253  -0.004075
 1445.0    0.121642  -0.003890
 1446.0    0.123097  -0.003673
 1447.0    0.124552  -0.003457
 1448.0    0.126008  -0.003241
 1449.0    0.127463  -0.003024
 1450.0    0.128918  -0.002808
 1451.0    0.130443  -0.002558
 1452.0    0.131968  -0.002307
 1453.0    0.133493  -0.002057
 1454.0    0.135018  -0.001806
 1455.0    0.136543  -0.001556
 1456.0    0.138141  -0.001268
 1457.0    0.139738  -0.000979
 1458.0    0.141336  -0.000691
 1459.0    0.142934  -0.000403
 1460.0    0.144531  -0.000115
 1461.0    0.146205   0.000215
 1462.0    0.147878   0.000545
 1463.0    0.149551   0.000875
 1464.0    0.151225   0.001204
 1465.0    0.152898   0.001534
 1466.0    0.154650   0.001910
 1467.0    0.156402   0.002286
 1468.0    0.158154   0.002662
 1469.0    0.159906   0.003037
 1470.0    0.161659   0.003413
 1471.0    0.163493   0.003840
 1472.0    0.165327   0.004266
 1473.0    0.167161   0.004692
 1474.0    0.168996   0.005119
 1475.0    0.170830   0.005545
 1476.0    0.172750   0.006028
 1477.0    0.174670   0.006510
 1478.0    0.176590   0.006993
 1479.0    0.178510   0.007475
 1480.0    0.180430   0.007957
 1481.0    0.182439   0.008502
 1482.0    0.184448   0.009046
 1483.0    0.186457   0.009590
 1484.0    0.188466   0.010134
 1485.0    0.190475   0.010678
 1486.0    0.192577   0.011291
 1487.0    0.194679   0.011903
 1488.0    0.196781   0.012516
 1489.0    0.198883   0.013128
 1490.0    0.200985   0.013741
 1491.0    0.203184   0.014429
 1492.0    0.205383   0.015117
 1493.0    0.207582   0.015805
 1494.0    0.209781   0.016493
 1495.0    0.211979   0.017180
 1496.0    0.214279   0.017952
 1497.0    0.216579   0.018723
 1498.0    0.218878   0.019495
 1499.0    0.221178   0.020266
 1500.0    0.223477   0.021038
 1501.0    0.225881   0.021901
 1502.0    0.228285   0.022764
 1503.0    0.230688   0.023626
 1504.0    0.233092   0.024489
 1505.0    0.235496   0.025352
 1506.0    0.238010   0.026319
 1507.0    0.240523   0.027286
 1508.0    0.243037   0.028253
 1509.0    0.245551   0.029220
 1510.0    0.248065   0.030187
 1511.0    0.250691   0.031267
 1512.0    0.253318   0.032347
 1513.0    0.255945   0.033427
 1514.0    0.258571   0.034507
 1515.0    0.261198   0.035587
 1516.0    0.263942   0.036793
 1517.0    0.266685   0.038000
 1518.0    0.269429   0.039206
 1519.0    0.272173   0.040412
 1520.0    0.274917   0.041618
 1521.0    0.277782   0.042965
 1522.0    0.280647   0.044312
 1523.0    0.283513   0.045659
 1524.0    0.286378   0.047005
 1525.0    0.289243   0.048352
 1526.0    0.292234   0.049856
 1527.0    0.295224   0.051359
 1528.0    0.298215   0.052862
 1529.0    0.301205   0.054365
 1530.0    0.304196   0.055869
 1531.0    0.307315   0.057547
 1532.0    0.310434   0.059224
 1533.0    0.313553   0.060902
 1534.0    0.316673   0.062580
 1535.0    0.319792   0.064258
 1536.0    0.323043   0.066130
 1537.0    0.326293   0.068003
 1538.0    0.329544   0.069876
 1539.0    0.332795   0.071749
 1540.0    0.336046   0.073621
 1541.0    0.339431   0.075712
 1542.0    0.342815   0.077803
 1543.0    0.346200   0.079894
 1544.0    0.349585   0.081984
 1545.0    0.352969   0.084075
 1546.0    0.356489   0.086410
 1547.0    0.360009   0.088745
 1548.0    0.363528   0.091080
 1549.0    0.367048   0.093415
 1550.0    0.370567   0.095750
 1551.0    0.374221   0.098359
 1552.0    0.377875   0.100968
 1553.0    0.381529   0.103576
 1554.0    0.385183   0.106185
 1555.0    0.388837   0.108794
 1556.0    0.392623   0.111710
 1557.0    0.396408   0.114627
 1558.0    0.400194   0.117543
 1559.0    0.403980   0.120459
 1560.0    0.407765   0.123376
 1561.0    0.411677   0.126637
 1562.0    0.415590   0.129898
 1563.0    0.419502   0.133160
 1564.0    0.423414   0.136421
 1565.0    0.427327   0.139682
 1566.0    0.431356   0.143332
 1567.0    0.435385   0.146982
 1568.0    0.439414   0.150632
 1569.0    0.443443   0.154282
 1570.0    0.447472   0.157932
 1571.0    0.451603   0.162018
 1572.0    0.455735   0.166105
 1573.0    0.459867   0.170192
 1574.0    0.463998   0.174279
 1575.0    0.468130   0.178365
 1576.0    0.472343   0.182943
 1577.0    0.476557   0.187520
 1578.0    0.480770   0.192098
 1579.0    0.484983   0.196675
 1580.0    0.489196   0.201253
 1581.0    0.493462   0.206382
 1582.0    0.497727   0.211512
 1583.0    0.501992   0.216641
 1584.0    0.506258   0.221771
 1585.0    0.510523   0.226900
 1586.0    0.514800   0.232648
 1587.0    0.519076   0.238396
 1588.0    0.523353   0.244144
 1589.0    0.527630   0.249892
 1590.0    0.531906   0.255640
 1591.0    0.536139   0.262078
 1592.0    0.540371   0.268517
 1593.0    0.544603   0.274956
 1594.0    0.548835   0.281394
 1595.0    0.553067   0.287833
 1596.0    0.557182   0.295041
 1597.0    0.561297   0.302249
 1598.0    0.565411   0.309457
 1599.0    0.569526   0.316665
 1600.0    0.573641   0.323873
 1601.0    0.577541   0.331929
 1602.0    0.581440   0.339984
 1603.0    0.585340   0.348040
 1604.0    0.589240   0.356096
 1605.0    0.593140   0.364152
 1606.0    0.596700   0.373136
 1607.0    0.600260   0.382121
 1608.0    0.603820   0.391106
 1609.0    0.607381   0.400090
 1610.0    0.610941   0.409075
 1611.0    0.614001   0.419059
 1612.0    0.617062   0.429043
 1613.0    0.620123   0.439027
 1614.0    0.623184   0.449011
 1615.0    0.626244   0.458995
 1616.0    0.628606   0.470033
 1617.0    0.630967   0.481071
 1618.0    0.633328   0.492110
 1619.0    0.635690   0.503148
 1620.0    0.638051   0.514186
 1621.0    0.639469   0.526304
 1622.0    0.640887   0.538422
 1623.0    0.642305   0.550540
 1624.0    0.643723   0.562658
 1625.0    0.645141   0.574776
 1626.0    0.645325   0.587950
 1627.0    0.645509   0.601124
 1628.0    0.645693   0.614298
 1629.0    0.645877   0.627472
 1630.0    0.646061   0.640646
 1631.0    0.644679   0.654782
 1632.0    0.643298   0.668917
 1633.0    0.641917   0.683053
 1634.0    0.640535   0.697189
 1635.0    0.639154   0.711324
 1636.0    0.635849   0.726229
 1637.0    0.632544   0.741133
 1638.0    0.629240   0.756037
 1639.0    0.625935   0.770942
 1640.0    0.622630   0.785846
 1641.0    0.617045   0.801202
 1642.0    0.611460   0.816557
 1643.0    0.605876   0.831913
 1644.0    0.600291   0.847268
 1645.0    0.594706   0.862624
 1646.0    0.586532   0.877969
 1647.0    0.578359   0.893313
 1648.0    0.570185   0.908658
 1649.0    0.562011   0.924003
 1650.0    0.553837   0.939348
 1651.0    0.542875   0.954075
 1652.0    0.531912   0.968802
 1653.0    0.520950   0.983528
 1654.0    0.509988   0.998255
 1655.0    0.499025   1.012982
 1656.0    0.485245   1.026354
 1657.0    0.471464   1.039725
 1658.0    0.457684   1.053097
 1659.0    0.443903   1.066469
 1660.0    0.430122   1.079841
 1661.0    0.413778   1.091121
 1662.0    0.397434   1.102402
 1663.0    0.381089   1.113682
 1664.0    0.364745   1.124963
 1665.0    0.348401   1.136244
 1666.0    0.329961   1.144667
 1667.0    0.311521   1.153091
 1668.0    0.293080   1.161515
 1669.0    0.274640   1.169939
 1670.0    0.256200   1.178363
 1671.0    0.236431   1.183397
 1672.0    0.216662   1.188431
 1673.0    0.196893   1.193465
 1674.0    0.177124   1.198499
 1675.0    0.157355   1.203533
 1676.0    0.137182   1.204902
 1677.0    0.117010   1.206272
 1678.0    0.096838   1.207641
 1679.0    0.076665   1.209011
 1680.0    0.056493   1.210380
 1681.0    0.036885   1.208143
 1682.0    0.017276   1.205906
 1683.0   -0.002332   1.203669
 1684.0   -0.021941   1.201432
 1685.0   -0.041549   1.199195
 1686.0   -0.059722   1.193725
 1687.0   -0.077894   1.188255
 1688.0   -0.096067   1.182785
 1689.0   -0.114240   1.177315
 1690.0   -0.132412   1.171846
 1691.0   -0.148488   1.163753
 1692.0   -0.164563   1.155660
 1693.0   -0.180638   1.147567
 1694.0   -0.196714   1.139474
 1695.0   -0.212789   1.131382
 1696.0   -0.226369   1.121398
 1697.0   -0.239950   1.111415
 1698.0   -0.253531   1.101431
 1699.0   -0.267111   1.091448
 1700.0   -0.280692   1.081465
 1701.0   -0.291641   1.070333
 1702.0   -0.302589   1.059202
 1703.0   -0.313538   1.048070
 1704.0   -0.324487   1.036939
 1705.0   -0.335436   1.025807
 1706.0   -0.343832   1.014193
 1707.0   -0.352227   1.002580
 1708.0   -0.360623   0.990966
 1709.0   -0.369019   0.979352
 1710.0   -0.377414   0.967738
 1711.0   -0.383483   0.956183
 1712.0   -0.389552   0.944627
 1713.0   -0.395621   0.933072
 1714.0   -0.401690   0.921516
 1715.0   -0.407759   0.909960
 1716.0   -0.411813   0.898863
