   W         M2+(K+_L)
 (MeV)      Re         Im
1614.0	-0.000761	-0.002271
1615.0	-0.000863	-0.002646
1616.0	-0.000953	-0.003008
1617.0	-0.001034	-0.003361
1618.0	-0.001105	-0.003705
1619.0	-0.001167	-0.004043
1620.0	-0.001220	-0.004373
1621.0	-0.001264	-0.004698
1622.0	-0.001300	-0.005018
1623.0	-0.001327	-0.005332
1624.0	-0.001346	-0.005641
1625.0	-0.001356	-0.005944
1626.0	-0.001358	-0.006242
1627.0	-0.001350	-0.006535
1628.0	-0.001335	-0.006822
1629.0	-0.001310	-0.007103
1630.0	-0.001276	-0.007378
1631.0	-0.001234	-0.007647
1632.0	-0.001182	-0.007909
1633.0	-0.001121	-0.008164
1634.0	-0.001051	-0.008411
1635.0	-0.000971	-0.008650
1636.0	-0.000882	-0.008881
1637.0	-0.000783	-0.009103
1638.0	-0.000675	-0.009316
1639.0	-0.000557	-0.009518
1640.0	-0.000430	-0.009711
1641.0	-0.000293	-0.009892
1642.0	-0.000146	-0.010062
1643.0	0.000011	-0.010220
1644.0	0.000177	-0.010365
1645.0	0.000352	-0.010497
1646.0	0.000537	-0.010615
1647.0	0.000732	-0.010718
1648.0	0.000935	-0.010806
1649.0	0.001148	-0.010878
1650.0	0.001369	-0.010934
1651.0	0.001599	-0.010973
1652.0	0.001837	-0.010994
1653.0	0.002084	-0.010997
1654.0	0.002337	-0.010981
1655.0	0.002598	-0.010946
1656.0	0.002866	-0.010891
1657.0	0.003140	-0.010815
1658.0	0.003420	-0.010718
1659.1	0.003705	-0.010600
1660.1	0.003994	-0.010461
1661.1	0.004288	-0.010299
1662.1	0.004584	-0.010114
1663.1	0.004884	-0.009907
1664.1	0.005184	-0.009678
1665.1	0.005486	-0.009425
1666.1	0.005788	-0.009149
1667.1	0.006089	-0.008850
1668.1	0.006389	-0.008529
1669.1	0.006685	-0.008184
1670.1	0.006979	-0.007817
1671.1	0.007267	-0.007429
1672.1	0.007550	-0.007018
1673.1	0.007827	-0.006586
1674.1	0.008096	-0.006133
1675.1	0.008357	-0.005661
1676.1	0.008609	-0.005168
1677.1	0.008850	-0.004658
1678.1	0.009080	-0.004129
1679.1	0.009299	-0.003584
1680.1	0.009504	-0.003022
1681.1	0.009696	-0.002446
1682.1	0.009873	-0.001855
1683.1	0.010035	-0.001252
1684.1	0.010182	-0.000636
1685.1	0.010312	-0.000010
1686.1	0.010426	0.000626
1687.1	0.010523	0.001271
1688.1	0.010602	0.001924
1689.1	0.010663	0.002583
1690.1	0.010706	0.003248
1691.1	0.010731	0.003917
1692.1	0.010737	0.004590
1693.1	0.010725	0.005265
1694.1	0.010694	0.005942
1695.1	0.010646	0.006620
1696.1	0.010579	0.007298
1697.1	0.010494	0.007975
1698.1	0.010391	0.008651
1699.1	0.010271	0.009324
1700.1	0.010133	0.009995
1701.1	0.009979	0.010662
1702.1	0.009808	0.011325
1703.1	0.009621	0.011984
1704.1	0.009419	0.012638
1705.1	0.009202	0.013287
1706.1	0.008969	0.013930
1707.1	0.008723	0.014567
1708.1	0.008463	0.015198
1709.1	0.008190	0.015823
1710.1	0.007905	0.016440
1711.1	0.007607	0.017051
1712.1	0.007297	0.017655
1713.1	0.006977	0.018252
1714.1	0.006646	0.018842
1715.1	0.006305	0.019424
1716.1	0.005954	0.019999
1717.1	0.005594	0.020566
1718.1	0.005226	0.021126
1719.1	0.004849	0.021679
1720.1	0.004465	0.022224
1721.1	0.004073	0.022761
1722.1	0.003675	0.023291
1723.1	0.003270	0.023814
1724.1	0.002859	0.024329
1725.1	0.002442	0.024837
1726.1	0.002020	0.025338
1727.1	0.001593	0.025831
1728.1	0.001161	0.026317
1729.1	0.000725	0.026795
1730.1	0.000285	0.027267
1731.1	-0.000159	0.027732
1732.1	-0.000606	0.028189
1733.1	-0.001057	0.028640
1734.1	-0.001510	0.029084
1735.1	-0.001967	0.029521
1736.1	-0.002425	0.029951
1737.1	-0.002886	0.030375
1738.1	-0.003349	0.030792
1739.1	-0.003814	0.031203
1740.1	-0.004281	0.031607
1741.1	-0.004749	0.032004
1742.1	-0.005218	0.032396
1743.1	-0.005689	0.032781
1744.1	-0.006160	0.033159
1745.1	-0.006632	0.033532
1746.1	-0.007106	0.033899
1747.2	-0.007579	0.034259
1748.2	-0.008054	0.034614
1749.2	-0.008528	0.034963
1750.2	-0.009003	0.035306
1751.2	-0.009478	0.035643
1752.2	-0.009953	0.035975
1753.2	-0.010429	0.036300
1754.2	-0.010904	0.036621
1755.2	-0.011379	0.036935
1756.2	-0.011853	0.037244
1757.2	-0.012328	0.037548
1758.2	-0.012802	0.037847
1759.2	-0.013275	0.038140
1760.2	-0.013748	0.038427
1761.2	-0.014221	0.038710
1762.2	-0.014693	0.038987
1763.2	-0.015164	0.039260
1764.2	-0.015635	0.039527
1765.2	-0.016104	0.039789
1766.2	-0.016573	0.040046
1767.2	-0.017042	0.040298
1768.2	-0.017509	0.040545
1769.2	-0.017976	0.040787
1770.2	-0.018441	0.041025
1771.2	-0.018906	0.041257
1772.2	-0.019369	0.041485
1773.2	-0.019832	0.041708
1774.2	-0.020294	0.041926
1775.2	-0.020754	0.042140
1776.2	-0.021214	0.042349
1777.2	-0.021672	0.042553
1778.2	-0.022129	0.042753
1779.2	-0.022585	0.042948
1780.2	-0.023040	0.043138
1781.2	-0.023494	0.043324
1782.2	-0.023947	0.043505
1783.2	-0.024398	0.043682
1784.2	-0.024849	0.043854
1785.2	-0.025298	0.044022
1786.2	-0.025745	0.044185
1787.2	-0.026192	0.044344
1788.2	-0.026637	0.044498
1789.2	-0.027081	0.044648
1790.2	-0.027523	0.044794
1791.2	-0.027965	0.044934
1792.2	-0.028404	0.045071
1793.2	-0.028843	0.045203
1794.2	-0.029280	0.045330
1795.2	-0.029716	0.045453
1796.2	-0.030150	0.045571
1797.2	-0.030583	0.045685
1798.2	-0.031015	0.045795
1799.2	-0.031445	0.045899
1800.2	-0.031873	0.046000
1801.2	-0.032300	0.046095
1802.2	-0.032726	0.046187
1803.2	-0.033150	0.046273
1804.2	-0.033573	0.046355
1805.2	-0.033994	0.046432
1806.2	-0.034413	0.046505
1807.2	-0.034831	0.046573
1808.2	-0.035247	0.046636
1809.2	-0.035661	0.046695
1810.2	-0.036074	0.046748
1811.2	-0.036486	0.046797
1812.2	-0.036895	0.046841
1813.2	-0.037303	0.046880
1814.2	-0.037709	0.046914
1815.2	-0.038113	0.046944
1816.2	-0.038516	0.046968
1817.2	-0.038916	0.046987
1818.2	-0.039315	0.047001
1819.2	-0.039712	0.047010
1820.2	-0.040107	0.047014
1821.2	-0.040501	0.047013
1822.2	-0.040892	0.047006
1823.2	-0.041281	0.046994
1824.2	-0.041669	0.046977
1825.2	-0.042054	0.046954
1826.2	-0.042437	0.046926
1827.2	-0.042819	0.046892
1828.2	-0.043198	0.046852
1829.2	-0.043575	0.046807
1830.2	-0.043950	0.046756
1831.2	-0.044323	0.046700
1832.2	-0.044693	0.046638
1833.2	-0.045062	0.046569
1834.2	-0.045428	0.046495
1835.2	-0.045792	0.046415
1836.3	-0.046154	0.046328
1837.3	-0.046513	0.046236
1838.3	-0.046870	0.046137
1839.3	-0.047225	0.046032
1840.3	-0.047578	0.045921
1841.3	-0.047928	0.045803
1842.3	-0.048276	0.045678
1843.3	-0.048621	0.045548
1844.3	-0.048964	0.045410
1845.3	-0.049305	0.045266
1846.3	-0.049643	0.045115
1847.3	-0.049979	0.044957
1848.3	-0.050313	0.044792
1849.3	-0.050644	0.044621
1850.3	-0.050973	0.044442
1851.3	-0.051299	0.044256
1852.3	-0.051622	0.044064
1853.3	-0.051944	0.043864
1854.3	-0.052262	0.043657
1855.3	-0.052579	0.043442
1856.3	-0.052892	0.043221
1857.3	-0.053203	0.042993
1858.3	-0.053512	0.042757
1859.3	-0.053817	0.042514
1860.3	-0.054121	0.042264
1861.3	-0.054421	0.042007
1862.3	-0.054719	0.041743
1863.3	-0.055014	0.041472
1864.3	-0.055307	0.041194
1865.3	-0.055597	0.040909
1866.3	-0.055884	0.040617
1867.3	-0.056169	0.040318
1868.3	-0.056451	0.040013
1869.3	-0.056730	0.039701
1870.3	-0.057007	0.039382
1871.3	-0.057281	0.039057
1872.3	-0.057553	0.038725
1873.3	-0.057821	0.038387
1874.3	-0.058088	0.038043
1875.3	-0.058351	0.037692
1876.3	-0.058612	0.037335
1877.3	-0.058870	0.036971
1878.3	-0.059126	0.036602
1879.3	-0.059378	0.036226
1880.3	-0.059628	0.035845
1881.3	-0.059875	0.035457
1882.3	-0.060119	0.035063
1883.3	-0.060360	0.034664
1884.3	-0.060598	0.034259
1885.3	-0.060833	0.033848
1886.3	-0.061064	0.033431
1887.3	-0.061292	0.033008
1888.3	-0.061517	0.032580
1889.3	-0.061738	0.032146
1890.3	-0.061956	0.031707
1891.3	-0.062170	0.031263
1892.3	-0.062379	0.030813
1893.3	-0.062585	0.030358
1894.3	-0.062787	0.029897
1895.3	-0.062985	0.029432
1896.3	-0.063178	0.028962
1897.3	-0.063367	0.028486
1898.3	-0.063551	0.028006
1899.3	-0.063731	0.027522
1900.3	-0.063906	0.027032
1901.3	-0.064076	0.026539
1902.3	-0.064241	0.026041
1903.3	-0.064401	0.025539
1904.3	-0.064556	0.025033
1905.3	-0.064705	0.024523
1906.3	-0.064849	0.024009
1907.3	-0.064988	0.023492
1908.3	-0.065121	0.022972
1909.3	-0.065248	0.022449
1910.3	-0.065370	0.021923
1911.3	-0.065486	0.021395
1912.3	-0.065596	0.020864
1913.3	-0.065699	0.020331
1914.3	-0.065797	0.019796
1915.3	-0.065889	0.019259
1916.3	-0.065974	0.018722
1917.3	-0.066053	0.018183
1918.3	-0.066126	0.017644
1919.3	-0.066192	0.017104
1920.3	-0.066252	0.016564
1921.3	-0.066305	0.016025
1922.3	-0.066352	0.015486
1923.3	-0.066392	0.014948
1924.4	-0.066425	0.014412
1925.4	-0.066451	0.013877
1926.4	-0.066471	0.013344
1927.4	-0.066484	0.012813
1928.4	-0.066490	0.012286
1929.4	-0.066489	0.011761
1930.4	-0.066482	0.011240
1931.4	-0.066467	0.010724
1932.4	-0.066445	0.010211
1933.4	-0.066416	0.009703
1934.4	-0.066380	0.009201
1935.4	-0.066337	0.008703
1936.4	-0.066287	0.008212
1937.4	-0.066230	0.007727
1938.4	-0.066166	0.007249
1939.4	-0.066095	0.006778
1940.4	-0.066017	0.006315
1941.4	-0.065931	0.005859
1942.4	-0.065838	0.005411
1943.4	-0.065739	0.004972
1944.4	-0.065632	0.004542
1945.4	-0.065518	0.004121
1946.4	-0.065398	0.003710
1947.4	-0.065270	0.003308
1948.4	-0.065136	0.002917
1949.4	-0.064994	0.002536
1950.4	-0.064846	0.002165
1951.4	-0.064691	0.001806
1952.4	-0.064530	0.001457
1953.4	-0.064362	0.001120
1954.4	-0.064187	0.000795
1955.4	-0.064007	0.000481
1956.4	-0.063820	0.000180
1957.4	-0.063626	-0.000110
1958.4	-0.063427	-0.000387
1959.4	-0.063222	-0.000653
1960.4	-0.063011	-0.000905
1961.4	-0.062795	-0.001146
1962.4	-0.062573	-0.001373
1963.4	-0.062346	-0.001588
1964.4	-0.062114	-0.001791
1965.4	-0.061877	-0.001981
1966.4	-0.061635	-0.002158
1967.4	-0.061388	-0.002323
1968.4	-0.061137	-0.002475
1969.4	-0.060882	-0.002615
1970.4	-0.060623	-0.002742
1971.4	-0.060361	-0.002857
1972.4	-0.060094	-0.002960
1973.4	-0.059825	-0.003051
1974.4	-0.059552	-0.003130
1975.4	-0.059276	-0.003197
1976.4	-0.058998	-0.003253
1977.4	-0.058717	-0.003297
1978.4	-0.058434	-0.003329
1979.4	-0.058149	-0.003351
1980.4	-0.057862	-0.003362
1981.4	-0.057574	-0.003362
1982.4	-0.057284	-0.003352
1983.4	-0.056994	-0.003331
1984.4	-0.056702	-0.003301
1985.4	-0.056410	-0.003261
1986.4	-0.056118	-0.003211
1987.4	-0.055826	-0.003152
1988.4	-0.055533	-0.003084
1989.4	-0.055241	-0.003007
1990.4	-0.054950	-0.002921
1991.4	-0.054659	-0.002828
1992.4	-0.054369	-0.002726
1993.4	-0.054081	-0.002617
1994.4	-0.053794	-0.002500
1995.4	-0.053508	-0.002375
1996.4	-0.053225	-0.002244
1997.4	-0.052943	-0.002107
1998.4	-0.052663	-0.001962
1999.4	-0.052386	-0.001812
2000.4	-0.052112	-0.001656
2001.4	-0.051840	-0.001494
2002.4	-0.051571	-0.001326
2003.4	-0.051305	-0.001154
2004.4	-0.051042	-0.000976
2005.4	-0.050782	-0.000794
2006.4	-0.050526	-0.000608
2007.4	-0.050274	-0.000417
2008.4	-0.050025	-0.000223
2009.4	-0.049780	-0.000025
2010.4	-0.049539	0.000177
2011.4	-0.049302	0.000382
2012.4	-0.049069	0.000590
2013.5	-0.048841	0.000800
2014.5	-0.048617	0.001013
2015.5	-0.048397	0.001229
2016.5	-0.048182	0.001446
2017.5	-0.047971	0.001666
2018.5	-0.047765	0.001887
2019.5	-0.047564	0.002110
2020.5	-0.047367	0.002334
2021.5	-0.047176	0.002559
2022.5	-0.046989	0.002785
2023.5	-0.046807	0.003012
2024.5	-0.046629	0.003239
2025.5	-0.046457	0.003467
2026.5	-0.046290	0.003695
2027.5	-0.046127	0.003923
2028.5	-0.045970	0.004151
2029.5	-0.045817	0.004379
2030.5	-0.045670	0.004606
2031.5	-0.045527	0.004833
2032.5	-0.045389	0.005059
2033.5	-0.045257	0.005284
2034.5	-0.045129	0.005509
2035.5	-0.045006	0.005732
2036.5	-0.044887	0.005953
2037.5	-0.044774	0.006174
2038.5	-0.044665	0.006393
2039.5	-0.044561	0.006610
2040.5	-0.044462	0.006825
2041.5	-0.044367	0.007039
2042.5	-0.044277	0.007250
2043.5	-0.044191	0.007460
2044.5	-0.044110	0.007667
2045.5	-0.044033	0.007872
2046.5	-0.043960	0.008074
2047.5	-0.043892	0.008274
2048.5	-0.043828	0.008472
2049.5	-0.043767	0.008666
2050.5	-0.043711	0.008858
2051.5	-0.043659	0.009047
2052.5	-0.043611	0.009233
2053.5	-0.043567	0.009416
2054.5	-0.043526	0.009596
2055.5	-0.043489	0.009773
2056.5	-0.043455	0.009946
2057.5	-0.043425	0.010117
2058.5	-0.043398	0.010283
2059.5	-0.043375	0.010447
2060.5	-0.043355	0.010607
2061.5	-0.043338	0.010763
2062.5	-0.043323	0.010916
2063.5	-0.043312	0.011064
2064.5	-0.043304	0.011210
2065.5	-0.043298	0.011351
2066.5	-0.043295	0.011489
2067.5	-0.043294	0.011623
2068.5	-0.043296	0.011753
2069.5	-0.043300	0.011879
2070.5	-0.043306	0.012001
2071.5	-0.043314	0.012119
2072.5	-0.043325	0.012232
2073.5	-0.043337	0.012342
2074.5	-0.043352	0.012448
2075.5	-0.043368	0.012550
2076.5	-0.043385	0.012647
2077.5	-0.043404	0.012741
2078.5	-0.043425	0.012830
2079.5	-0.043447	0.012915
2080.5	-0.043470	0.012996
2081.5	-0.043495	0.013073
2082.5	-0.043520	0.013145
2083.5	-0.043547	0.013213
2084.5	-0.043574	0.013277
2085.5	-0.043602	0.013337
2086.5	-0.043631	0.013393
2087.5	-0.043661	0.013444
2088.5	-0.043691	0.013491
2089.5	-0.043721	0.013534
2090.5	-0.043752	0.013573
2091.5	-0.043783	0.013607
2092.5	-0.043815	0.013638
2093.5	-0.043846	0.013664
2094.5	-0.043878	0.013686
2095.5	-0.043909	0.013704
2096.5	-0.043941	0.013717
2097.5	-0.043972	0.013727
2098.5	-0.044003	0.013733
2099.5	-0.044033	0.013734
2100.5	-0.044064	0.013732
2101.6	-0.044093	0.013725
2102.6	-0.044123	0.013715
2103.6	-0.044151	0.013700
2104.6	-0.044179	0.013682
2105.6	-0.044206	0.013660
2106.6	-0.044233	0.013634
2107.6	-0.044258	0.013605
2108.6	-0.044283	0.013571
2109.6	-0.044306	0.013534
2110.6	-0.044329	0.013493
2111.6	-0.044351	0.013449
2112.6	-0.044371	0.013401
2113.6	-0.044390	0.013349
2114.6	-0.044408	0.013294
2115.6	-0.044425	0.013236
2116.6	-0.044441	0.013174
2117.6	-0.044455	0.013109
2118.6	-0.044468	0.013040
2119.6	-0.044479	0.012969
2120.6	-0.044489	0.012894
2121.6	-0.044497	0.012816
2122.6	-0.044504	0.012735
2123.6	-0.044510	0.012651
2124.6	-0.044514	0.012563
2125.6	-0.044516	0.012473
2126.6	-0.044516	0.012381
2127.6	-0.044515	0.012285
2128.6	-0.044512	0.012187
2129.6	-0.044508	0.012085
2130.6	-0.044502	0.011982
2131.6	-0.044494	0.011875
2132.6	-0.044484	0.011767
2133.6	-0.044473	0.011655
2134.6	-0.044460	0.011542
2135.6	-0.044445	0.011426
2136.6	-0.044428	0.011308
2137.6	-0.044409	0.011187
2138.6	-0.044389	0.011064
2139.6	-0.044367	0.010940
2140.6	-0.044343	0.010813
2141.6	-0.044317	0.010684
2142.6	-0.044289	0.010554
2143.6	-0.044260	0.010421
2144.6	-0.044228	0.010287
2145.6	-0.044195	0.010151
2146.6	-0.044160	0.010013
2147.6	-0.044123	0.009874
2148.6	-0.044085	0.009733
2149.6	-0.044044	0.009591
2150.6	-0.044002	0.009447
2151.6	-0.043958	0.009302
2152.6	-0.043912	0.009155
2153.6	-0.043865	0.009007
2154.6	-0.043815	0.008858
2155.6	-0.043764	0.008708
2156.6	-0.043712	0.008557
2157.6	-0.043657	0.008404
2158.6	-0.043601	0.008251
2159.6	-0.043543	0.008096
2160.6	-0.043484	0.007941
2161.6	-0.043422	0.007785
2162.6	-0.043359	0.007628
2163.6	-0.043295	0.007471
2164.6	-0.043229	0.007312
2165.6	-0.043161	0.007153
2166.6	-0.043092	0.006994
2167.6	-0.043021	0.006834
2168.6	-0.042949	0.006673
2169.6	-0.042875	0.006512
2170.6	-0.042800	0.006351
2171.6	-0.042723	0.006189
2172.6	-0.042645	0.006027
2173.6	-0.042565	0.005864
2174.6	-0.042484	0.005702
2175.6	-0.042402	0.005539
2176.6	-0.042318	0.005376
2177.6	-0.042233	0.005213
2178.6	-0.042147	0.005050
2179.6	-0.042059	0.004886
2180.6	-0.041971	0.004723
2181.6	-0.041880	0.004560
2182.6	-0.041789	0.004397
2183.6	-0.041697	0.004234
2184.6	-0.041603	0.004072
2185.6	-0.041508	0.003909
2186.6	-0.041413	0.003747
2187.6	-0.041316	0.003585
2188.6	-0.041218	0.003423
2189.6	-0.041119	0.003261
2190.7	-0.041019	0.003100
2191.7	-0.040918	0.002939
2192.7	-0.040816	0.002779
2193.7	-0.040713	0.002619
2194.7	-0.040609	0.002460
2195.7	-0.040504	0.002301
2196.7	-0.040399	0.002142
2197.7	-0.040292	0.001985
2198.7	-0.040185	0.001827
2199.7	-0.040077	0.001671
2200.7	-0.039969	0.001514
2201.7	-0.039859	0.001359
2202.7	-0.039749	0.001204
2203.7	-0.039638	0.001050
2204.7	-0.039527	0.000896
2205.7	-0.039414	0.000744
2206.7	-0.039302	0.000592
2207.7	-0.039188	0.000440
2208.7	-0.039074	0.000290
2209.7	-0.038960	0.000140
2210.7	-0.038845	-0.000009
2211.7	-0.038729	-0.000157
2212.7	-0.038613	-0.000304
2213.7	-0.038497	-0.000450
2214.7	-0.038380	-0.000596
2215.7	-0.038262	-0.000740
2216.7	-0.038144	-0.000884
2217.7	-0.038026	-0.001027
2218.7	-0.037908	-0.001169
2219.7	-0.037789	-0.001310
2220.7	-0.037669	-0.001450
2221.7	-0.037550	-0.001589
2222.7	-0.037430	-0.001728
2223.7	-0.037310	-0.001865
2224.7	-0.037190	-0.002001
2225.7	-0.037069	-0.002137
2226.7	-0.036948	-0.002271
2227.7	-0.036827	-0.002404
2228.7	-0.036706	-0.002537
2229.7	-0.036585	-0.002668
2230.7	-0.036463	-0.002798
2231.7	-0.036341	-0.002928
2232.7	-0.036220	-0.003056
2233.7	-0.036098	-0.003183
2234.7	-0.035976	-0.003310
2235.7	-0.035854	-0.003435
2236.7	-0.035732	-0.003559
2237.7	-0.035610	-0.003682
2238.7	-0.035487	-0.003804
2239.7	-0.035365	-0.003925
2240.7	-0.035243	-0.004046
2241.7	-0.035121	-0.004165
2242.7	-0.034999	-0.004283
2243.7	-0.034877	-0.004400
2244.7	-0.034755	-0.004515
2245.7	-0.034633	-0.004630
2246.7	-0.034511	-0.004744
2247.7	-0.034389	-0.004857
2248.7	-0.034267	-0.004969
2249.7	-0.034146	-0.005079
2250.7	-0.034024	-0.005189
2251.7	-0.033903	-0.005298
2252.7	-0.033781	-0.005405
2253.7	-0.033660	-0.005512
2254.7	-0.033539	-0.005617
2255.7	-0.033419	-0.005722
2256.7	-0.033298	-0.005825
2257.7	-0.033178	-0.005928
2258.7	-0.033058	-0.006029
2259.7	-0.032938	-0.006130
2260.7	-0.032818	-0.006229
2261.7	-0.032698	-0.006327
2262.7	-0.032579	-0.006425
2263.7	-0.032460	-0.006521
2264.7	-0.032341	-0.006617
2265.7	-0.032222	-0.006711
2266.7	-0.032104	-0.006804
2267.7	-0.031986	-0.006897
2268.7	-0.031868	-0.006988
2269.7	-0.031751	-0.007079
2270.7	-0.031633	-0.007168
2271.7	-0.031516	-0.007257
2272.7	-0.031400	-0.007344
2273.7	-0.031283	-0.007431
2274.7	-0.031167	-0.007517
2275.7	-0.031052	-0.007601
2276.7	-0.030936	-0.007685
2277.7	-0.030821	-0.007768
2278.8	-0.030707	-0.007850
2279.8	-0.030592	-0.007931
2280.8	-0.030478	-0.008011
2281.8	-0.030364	-0.008090
2282.8	-0.030251	-0.008169
2283.8	-0.030138	-0.008246
2284.8	-0.030025	-0.008323
2285.8	-0.029913	-0.008398
2286.8	-0.029801	-0.008473
2287.8	-0.029689	-0.008547
2288.8	-0.029578	-0.008620
2289.8	-0.029467	-0.008692
2290.8	-0.029357	-0.008763
2291.8	-0.029247	-0.008834
2292.8	-0.029137	-0.008903
2293.8	-0.029028	-0.008972
2294.8	-0.028919	-0.009040
2295.8	-0.028810	-0.009107
2296.8	-0.028702	-0.009173
2297.8	-0.028594	-0.009239
2298.8	-0.028487	-0.009304
2299.8	-0.028380	-0.009367
2300.8	-0.028274	-0.009431
2301.8	-0.028167	-0.009493
2302.8	-0.028062	-0.009554
2303.8	-0.027956	-0.009615
2304.8	-0.027851	-0.009675
2305.8	-0.027747	-0.009734
2306.8	-0.027643	-0.009793
2307.8	-0.027539	-0.009851
2308.8	-0.027435	-0.009908
2309.8	-0.027333	-0.009964
2310.8	-0.027230	-0.010020
2311.8	-0.027128	-0.010075
2312.8	-0.027026	-0.010129
2313.8	-0.026925	-0.010182
2314.8	-0.026824	-0.010235
2315.8	-0.026724	-0.010287
2316.8	-0.026624	-0.010338
2317.8	-0.026524	-0.010389
2318.8	-0.026425	-0.010439
2319.8	-0.026326	-0.010489
2320.8	-0.026228	-0.010537
2321.8	-0.026130	-0.010585
2322.8	-0.026032	-0.010633
2323.8	-0.025935	-0.010680
2324.8	-0.025838	-0.010726
2325.8	-0.025742	-0.010771
2326.8	-0.025646	-0.010816
2327.8	-0.025551	-0.010860
2328.8	-0.025455	-0.010904
2329.8	-0.025361	-0.010947
2330.8	-0.025267	-0.010990
2331.8	-0.025173	-0.011031
2332.8	-0.025079	-0.011073
2333.8	-0.024986	-0.011113
2334.8	-0.024894	-0.011154
2335.8	-0.024802	-0.011193
2336.8	-0.024710	-0.011232
2337.8	-0.024618	-0.011271
2338.8	-0.024528	-0.011308
2339.8	-0.024437	-0.011346
2340.8	-0.024347	-0.011383
2341.8	-0.024257	-0.011419
2342.8	-0.024168	-0.011455
2343.8	-0.024079	-0.011490
2344.8	-0.023990	-0.011525
2345.8	-0.023902	-0.011559
2346.8	-0.023814	-0.011592
2347.8	-0.023727	-0.011626
2348.8	-0.023640	-0.011658
2349.8	-0.023554	-0.011691
2350.8	-0.023468	-0.011722
2351.8	-0.023382	-0.011753
2352.8	-0.023296	-0.011784
2353.8	-0.023212	-0.011814
2354.8	-0.023127	-0.011844
2355.8	-0.023043	-0.011874
2356.8	-0.022959	-0.011903
2357.8	-0.022876	-0.011931
2358.8	-0.022793	-0.011959
2359.8	-0.022710	-0.011987
2360.8	-0.022628	-0.012014
2361.8	-0.022546	-0.012040
2362.8	-0.022464	-0.012067
2363.8	-0.022383	-0.012093
2364.8	-0.022303	-0.012118
2365.8	-0.022222	-0.012143
2366.8	-0.022142	-0.012168
2367.9	-0.022063	-0.012192
2368.9	-0.021983	-0.012216
2369.9	-0.021905	-0.012239
2370.9	-0.021826	-0.012262
2371.9	-0.021748	-0.012285
2372.9	-0.021670	-0.012307
