   W         M4+(K+_L)
 (MeV)      Re         Im
1614.0	-0.000000	-0.000004
1615.0	-0.000000	-0.000007
1616.0	-0.000000	-0.000009
1617.0	0.000000	-0.000012
1618.0	0.000000	-0.000015
1619.0	0.000001	-0.000019
1620.0	0.000001	-0.000023
1621.0	0.000002	-0.000028
1622.0	0.000002	-0.000033
1623.0	0.000003	-0.000039
1624.0	0.000005	-0.000045
1625.0	0.000006	-0.000052
1626.0	0.000008	-0.000059
1627.0	0.000010	-0.000068
1628.0	0.000013	-0.000077
1629.0	0.000016	-0.000086
1630.0	0.000019	-0.000096
1631.0	0.000023	-0.000107
1632.0	0.000028	-0.000119
1633.0	0.000033	-0.000132
1634.0	0.000039	-0.000145
1635.0	0.000046	-0.000159
1636.0	0.000054	-0.000174
1637.0	0.000062	-0.000190
1638.0	0.000072	-0.000207
1639.0	0.000082	-0.000224
1640.0	0.000094	-0.000243
1641.0	0.000107	-0.000262
1642.0	0.000122	-0.000282
1643.0	0.000138	-0.000303
1644.0	0.000156	-0.000325
1645.0	0.000175	-0.000347
1646.0	0.000196	-0.000370
1647.0	0.000219	-0.000394
1648.0	0.000245	-0.000419
1649.0	0.000272	-0.000445
1650.0	0.000302	-0.000471
1651.0	0.000334	-0.000497
1652.0	0.000368	-0.000524
1653.0	0.000406	-0.000551
1654.0	0.000446	-0.000579
1655.0	0.000489	-0.000606
1656.0	0.000535	-0.000634
1657.0	0.000585	-0.000662
1658.0	0.000637	-0.000689
1659.1	0.000693	-0.000716
1660.1	0.000753	-0.000743
1661.1	0.000816	-0.000768
1662.1	0.000883	-0.000793
1663.1	0.000954	-0.000817
1664.1	0.001028	-0.000839
1665.1	0.001106	-0.000860
1666.1	0.001188	-0.000880
1667.1	0.001274	-0.000897
1668.1	0.001364	-0.000912
1669.1	0.001458	-0.000925
1670.1	0.001555	-0.000935
1671.1	0.001656	-0.000943
1672.1	0.001760	-0.000947
1673.1	0.001868	-0.000948
1674.1	0.001979	-0.000946
1675.1	0.002094	-0.000940
1676.1	0.002211	-0.000931
1677.1	0.002330	-0.000917
1678.1	0.002452	-0.000899
1679.1	0.002576	-0.000878
1680.1	0.002702	-0.000851
1681.1	0.002829	-0.000821
1682.1	0.002958	-0.000786
1683.1	0.003087	-0.000746
1684.1	0.003216	-0.000702
1685.1	0.003346	-0.000653
1686.1	0.003475	-0.000600
1687.1	0.003604	-0.000543
1688.1	0.003731	-0.000481
1689.1	0.003857	-0.000415
1690.1	0.003981	-0.000345
1691.1	0.004103	-0.000271
1692.1	0.004222	-0.000193
1693.1	0.004339	-0.000112
1694.1	0.004452	-0.000027
1695.1	0.004562	0.000060
1696.1	0.004667	0.000151
1697.1	0.004769	0.000244
1698.1	0.004867	0.000339
1699.1	0.004960	0.000436
1700.1	0.005048	0.000536
1701.1	0.005132	0.000636
1702.1	0.005210	0.000738
1703.1	0.005284	0.000841
1704.1	0.005352	0.000945
1705.1	0.005415	0.001049
1706.1	0.005473	0.001154
1707.1	0.005526	0.001258
1708.1	0.005573	0.001362
1709.1	0.005615	0.001466
1710.1	0.005652	0.001569
1711.1	0.005683	0.001672
1712.1	0.005710	0.001773
1713.1	0.005732	0.001873
1714.1	0.005748	0.001972
1715.1	0.005760	0.002070
1716.1	0.005768	0.002166
1717.1	0.005771	0.002260
1718.1	0.005769	0.002353
1719.1	0.005764	0.002444
1720.1	0.005754	0.002533
1721.1	0.005741	0.002620
1722.1	0.005724	0.002705
1723.1	0.005703	0.002788
1724.1	0.005679	0.002869
1725.1	0.005652	0.002947
1726.1	0.005621	0.003024
1727.1	0.005588	0.003099
1728.1	0.005552	0.003171
1729.1	0.005514	0.003242
1730.1	0.005473	0.003310
1731.1	0.005429	0.003376
1732.1	0.005384	0.003440
1733.1	0.005337	0.003502
1734.1	0.005287	0.003562
1735.1	0.005236	0.003621
1736.1	0.005184	0.003677
1737.1	0.005130	0.003731
1738.1	0.005074	0.003784
1739.1	0.005018	0.003835
1740.1	0.004960	0.003884
1741.1	0.004901	0.003931
1742.1	0.004841	0.003977
1743.1	0.004781	0.004021
1744.1	0.004719	0.004063
1745.1	0.004657	0.004104
1746.1	0.004595	0.004143
1747.2	0.004532	0.004181
1748.2	0.004468	0.004218
1749.2	0.004404	0.004253
1750.2	0.004340	0.004287
1751.2	0.004276	0.004320
1752.2	0.004211	0.004351
1753.2	0.004146	0.004382
1754.2	0.004081	0.004411
1755.2	0.004016	0.004439
1756.2	0.003952	0.004466
1757.2	0.003887	0.004492
1758.2	0.003822	0.004517
1759.2	0.003757	0.004541
1760.2	0.003693	0.004564
1761.2	0.003629	0.004586
1762.2	0.003565	0.004608
1763.2	0.003501	0.004628
1764.2	0.003437	0.004648
1765.2	0.003374	0.004667
1766.2	0.003311	0.004685
1767.2	0.003249	0.004703
1768.2	0.003187	0.004719
1769.2	0.003125	0.004736
1770.2	0.003064	0.004751
1771.2	0.003003	0.004766
1772.2	0.002942	0.004781
1773.2	0.002882	0.004794
1774.2	0.002822	0.004808
1775.2	0.002763	0.004820
1776.2	0.002704	0.004832
1777.2	0.002646	0.004844
1778.2	0.002588	0.004855
1779.2	0.002530	0.004866
1780.2	0.002474	0.004877
1781.2	0.002417	0.004886
1782.2	0.002361	0.004896
1783.2	0.002306	0.004905
1784.2	0.002251	0.004914
1785.2	0.002196	0.004922
1786.2	0.002142	0.004930
1787.2	0.002089	0.004938
1788.2	0.002036	0.004945
1789.2	0.001983	0.004952
1790.2	0.001931	0.004959
1791.2	0.001880	0.004965
1792.2	0.001829	0.004972
1793.2	0.001778	0.004977
1794.2	0.001728	0.004983
1795.2	0.001679	0.004988
1796.2	0.001630	0.004993
1797.2	0.001581	0.004998
1798.2	0.001533	0.005003
1799.2	0.001485	0.005007
1800.2	0.001438	0.005011
1801.2	0.001391	0.005015
1802.2	0.001345	0.005018
1803.2	0.001299	0.005022
1804.2	0.001253	0.005025
1805.2	0.001208	0.005028
1806.2	0.001164	0.005030
1807.2	0.001120	0.005033
1808.2	0.001076	0.005035
1809.2	0.001033	0.005037
1810.2	0.000990	0.005039
1811.2	0.000947	0.005040
1812.2	0.000905	0.005041
1813.2	0.000863	0.005042
1814.2	0.000822	0.005043
1815.2	0.000781	0.005044
1816.2	0.000740	0.005044
1817.2	0.000700	0.005044
1818.2	0.000660	0.005044
1819.2	0.000621	0.005044
1820.2	0.000581	0.005043
1821.2	0.000542	0.005042
1822.2	0.000504	0.005041
1823.2	0.000465	0.005040
1824.2	0.000427	0.005038
1825.2	0.000389	0.005036
1826.2	0.000352	0.005033
1827.2	0.000315	0.005031
1828.2	0.000278	0.005027
1829.2	0.000241	0.005024
1830.2	0.000204	0.005020
1831.2	0.000168	0.005016
1832.2	0.000132	0.005012
1833.2	0.000096	0.005007
1834.2	0.000060	0.005001
1835.2	0.000024	0.004996
1836.3	-0.000011	0.004989
1837.3	-0.000047	0.004983
1838.3	-0.000082	0.004975
1839.3	-0.000117	0.004968
1840.3	-0.000153	0.004959
1841.3	-0.000188	0.004950
1842.3	-0.000223	0.004941
1843.3	-0.000258	0.004931
1844.3	-0.000293	0.004920
1845.3	-0.000328	0.004909
1846.3	-0.000364	0.004897
1847.3	-0.000399	0.004885
1848.3	-0.000435	0.004872
1849.3	-0.000470	0.004858
1850.3	-0.000506	0.004843
1851.3	-0.000542	0.004827
1852.3	-0.000578	0.004811
1853.3	-0.000614	0.004794
1854.3	-0.000650	0.004777
1855.3	-0.000687	0.004758
1856.3	-0.000724	0.004739
1857.3	-0.000761	0.004719
1858.3	-0.000798	0.004698
1859.3	-0.000835	0.004677
1860.3	-0.000873	0.004655
1861.3	-0.000911	0.004632
1862.3	-0.000949	0.004609
1863.3	-0.000988	0.004585
1864.3	-0.001027	0.004561
1865.3	-0.001066	0.004536
1866.3	-0.001105	0.004510
1867.3	-0.001145	0.004484
1868.3	-0.001185	0.004458
1869.3	-0.001226	0.004431
1870.3	-0.001266	0.004404
1871.3	-0.001308	0.004377
1872.3	-0.001350	0.004349
1873.3	-0.001392	0.004321
1874.3	-0.001434	0.004293
1875.3	-0.001477	0.004265
1876.3	-0.001521	0.004237
1877.3	-0.001565	0.004208
1878.3	-0.001609	0.004180
1879.3	-0.001653	0.004151
1880.3	-0.001698	0.004122
1881.3	-0.001744	0.004093
1882.3	-0.001790	0.004065
1883.3	-0.001835	0.004036
1884.3	-0.001882	0.004007
1885.3	-0.001928	0.003978
1886.3	-0.001975	0.003949
1887.3	-0.002021	0.003920
1888.3	-0.002068	0.003891
1889.3	-0.002115	0.003863
1890.3	-0.002161	0.003834
1891.3	-0.002208	0.003805
1892.3	-0.002255	0.003777
1893.3	-0.002301	0.003748
1894.3	-0.002347	0.003720
1895.3	-0.002392	0.003691
1896.3	-0.002438	0.003663
1897.3	-0.002483	0.003635
1898.3	-0.002527	0.003607
1899.3	-0.002571	0.003579
1900.3	-0.002614	0.003551
1901.3	-0.002656	0.003523
1902.3	-0.002698	0.003496
1903.3	-0.002739	0.003468
1904.3	-0.002779	0.003441
1905.3	-0.002819	0.003414
1906.3	-0.002857	0.003387
1907.3	-0.002894	0.003360
1908.3	-0.002930	0.003333
1909.3	-0.002966	0.003307
1910.3	-0.003000	0.003281
1911.3	-0.003033	0.003255
1912.3	-0.003064	0.003229
1913.3	-0.003095	0.003204
1914.3	-0.003124	0.003179
1915.3	-0.003152	0.003154
1916.3	-0.003179	0.003130
1917.3	-0.003204	0.003106
1918.3	-0.003228	0.003083
1919.3	-0.003250	0.003059
1920.3	-0.003271	0.003037
1921.3	-0.003290	0.003014
1922.3	-0.003308	0.002992
1923.3	-0.003325	0.002971
1924.4	-0.003340	0.002950
1925.4	-0.003353	0.002930
1926.4	-0.003365	0.002910
1927.4	-0.003376	0.002891
1928.4	-0.003384	0.002873
1929.4	-0.003392	0.002855
1930.4	-0.003397	0.002837
1931.4	-0.003401	0.002821
1932.4	-0.003404	0.002805
1933.4	-0.003405	0.002789
1934.4	-0.003404	0.002775
1935.4	-0.003402	0.002761
1936.4	-0.003398	0.002748
1937.4	-0.003393	0.002735
1938.4	-0.003387	0.002723
1939.4	-0.003379	0.002712
1940.4	-0.003369	0.002702
1941.4	-0.003358	0.002693
1942.4	-0.003345	0.002684
1943.4	-0.003332	0.002676
1944.4	-0.003316	0.002668
1945.4	-0.003300	0.002661
1946.4	-0.003282	0.002655
1947.4	-0.003263	0.002650
1948.4	-0.003243	0.002645
1949.4	-0.003221	0.002641
1950.4	-0.003198	0.002638
1951.4	-0.003174	0.002635
1952.4	-0.003149	0.002632
1953.4	-0.003123	0.002631
1954.4	-0.003096	0.002629
1955.4	-0.003068	0.002629
1956.4	-0.003039	0.002628
1957.4	-0.003010	0.002628
1958.4	-0.002979	0.002628
1959.4	-0.002947	0.002629
1960.4	-0.002915	0.002630
1961.4	-0.002882	0.002631
1962.4	-0.002848	0.002633
1963.4	-0.002814	0.002634
1964.4	-0.002779	0.002636
1965.4	-0.002743	0.002638
1966.4	-0.002707	0.002640
1967.4	-0.002671	0.002642
1968.4	-0.002634	0.002643
1969.4	-0.002596	0.002645
1970.4	-0.002559	0.002647
1971.4	-0.002521	0.002648
1972.4	-0.002482	0.002649
1973.4	-0.002444	0.002650
1974.4	-0.002405	0.002651
1975.4	-0.002366	0.002651
1976.4	-0.002326	0.002651
1977.4	-0.002287	0.002651
1978.4	-0.002247	0.002650
1979.4	-0.002208	0.002648
1980.4	-0.002168	0.002646
1981.4	-0.002129	0.002644
1982.4	-0.002089	0.002641
1983.4	-0.002049	0.002638
1984.4	-0.002010	0.002634
1985.4	-0.001970	0.002629
1986.4	-0.001931	0.002624
1987.4	-0.001891	0.002618
1988.4	-0.001852	0.002611
1989.4	-0.001813	0.002604
1990.4	-0.001774	0.002596
1991.4	-0.001735	0.002587
1992.4	-0.001697	0.002578
1993.4	-0.001659	0.002567
1994.4	-0.001620	0.002557
1995.4	-0.001583	0.002545
1996.4	-0.001545	0.002533
1997.4	-0.001508	0.002520
1998.4	-0.001470	0.002506
1999.4	-0.001434	0.002492
2000.4	-0.001397	0.002477
2001.4	-0.001361	0.002461
2002.4	-0.001325	0.002445
2003.4	-0.001289	0.002428
2004.4	-0.001253	0.002410
2005.4	-0.001218	0.002391
2006.4	-0.001183	0.002372
2007.4	-0.001149	0.002353
2008.4	-0.001115	0.002333
2009.4	-0.001081	0.002312
2010.4	-0.001047	0.002290
2011.4	-0.001014	0.002269
2012.4	-0.000981	0.002246
2013.5	-0.000949	0.002223
2014.5	-0.000916	0.002200
2015.5	-0.000884	0.002176
2016.5	-0.000853	0.002152
2017.5	-0.000822	0.002127
2018.5	-0.000791	0.002102
2019.5	-0.000760	0.002077
2020.5	-0.000730	0.002051
2021.5	-0.000700	0.002025
2022.5	-0.000670	0.001998
2023.5	-0.000641	0.001972
2024.5	-0.000612	0.001945
2025.5	-0.000584	0.001918
2026.5	-0.000556	0.001890
2027.5	-0.000528	0.001863
2028.5	-0.000500	0.001835
2029.5	-0.000473	0.001807
2030.5	-0.000446	0.001779
2031.5	-0.000420	0.001751
2032.5	-0.000394	0.001723
2033.5	-0.000368	0.001695
2034.5	-0.000343	0.001667
2035.5	-0.000318	0.001638
2036.5	-0.000293	0.001610
2037.5	-0.000269	0.001582
2038.5	-0.000245	0.001554
2039.5	-0.000221	0.001526
2040.5	-0.000198	0.001498
2041.5	-0.000175	0.001470
2042.5	-0.000152	0.001442
2043.5	-0.000130	0.001415
2044.5	-0.000108	0.001388
2045.5	-0.000087	0.001360
2046.5	-0.000065	0.001333
2047.5	-0.000045	0.001307
2048.5	-0.000024	0.001280
2049.5	-0.000004	0.001254
2050.5	0.000015	0.001228
2051.5	0.000035	0.001202
2052.5	0.000053	0.001177
2053.5	0.000072	0.001152
2054.5	0.000090	0.001127
2055.5	0.000108	0.001103
2056.5	0.000125	0.001079
2057.5	0.000142	0.001055
2058.5	0.000158	0.001032
2059.5	0.000174	0.001009
2060.5	0.000190	0.000987
2061.5	0.000205	0.000965
2062.5	0.000220	0.000943
2063.5	0.000235	0.000922
2064.5	0.000249	0.000901
2065.5	0.000262	0.000881
2066.5	0.000275	0.000861
2067.5	0.000288	0.000841
2068.5	0.000300	0.000823
2069.5	0.000312	0.000804
2070.5	0.000324	0.000786
2071.5	0.000335	0.000769
2072.5	0.000345	0.000752
2073.5	0.000355	0.000735
2074.5	0.000365	0.000719
2075.5	0.000374	0.000704
2076.5	0.000382	0.000689
2077.5	0.000390	0.000674
2078.5	0.000398	0.000661
2079.5	0.000405	0.000647
2080.5	0.000412	0.000634
2081.5	0.000418	0.000622
2082.5	0.000424	0.000610
2083.5	0.000429	0.000599
2084.5	0.000434	0.000588
2085.5	0.000438	0.000578
2086.5	0.000442	0.000568
2087.5	0.000445	0.000558
2088.5	0.000448	0.000550
2089.5	0.000451	0.000541
2090.5	0.000452	0.000534
2091.5	0.000454	0.000526
2092.5	0.000455	0.000520
2093.5	0.000455	0.000513
2094.5	0.000455	0.000507
2095.5	0.000454	0.000502
2096.5	0.000453	0.000497
2097.5	0.000452	0.000493
2098.5	0.000449	0.000489
2099.5	0.000447	0.000485
2100.5	0.000444	0.000482
2101.6	0.000440	0.000479
2102.6	0.000436	0.000477
2103.6	0.000432	0.000475
2104.6	0.000427	0.000474
2105.6	0.000421	0.000473
2106.6	0.000415	0.000472
2107.6	0.000409	0.000472
2108.6	0.000402	0.000472
2109.6	0.000395	0.000473
2110.6	0.000387	0.000473
2111.6	0.000379	0.000475
2112.6	0.000370	0.000476
2113.6	0.000361	0.000478
2114.6	0.000351	0.000480
2115.6	0.000341	0.000482
2116.6	0.000331	0.000485
2117.6	0.000320	0.000488
2118.6	0.000309	0.000491
2119.6	0.000298	0.000494
2120.6	0.000286	0.000498
2121.6	0.000273	0.000502
2122.6	0.000261	0.000506
2123.6	0.000248	0.000510
2124.6	0.000234	0.000514
2125.6	0.000220	0.000519
2126.6	0.000206	0.000524
2127.6	0.000192	0.000529
2128.6	0.000177	0.000534
2129.6	0.000162	0.000539
2130.6	0.000147	0.000544
2131.6	0.000131	0.000550
2132.6	0.000115	0.000555
2133.6	0.000099	0.000561
2134.6	0.000082	0.000566
2135.6	0.000066	0.000572
2136.6	0.000049	0.000578
2137.6	0.000031	0.000583
2138.6	0.000014	0.000589
2139.6	-0.000004	0.000595
2140.6	-0.000022	0.000601
2141.6	-0.000040	0.000606
2142.6	-0.000058	0.000612
2143.6	-0.000077	0.000618
2144.6	-0.000095	0.000623
2145.6	-0.000114	0.000629
2146.6	-0.000133	0.000635
2147.6	-0.000152	0.000640
2148.6	-0.000171	0.000646
2149.6	-0.000190	0.000651
2150.6	-0.000210	0.000656
2151.6	-0.000229	0.000662
2152.6	-0.000249	0.000667
2153.6	-0.000269	0.000672
2154.6	-0.000288	0.000676
2155.6	-0.000308	0.000681
2156.6	-0.000328	0.000686
2157.6	-0.000348	0.000690
2158.6	-0.000368	0.000694
2159.6	-0.000388	0.000699
2160.6	-0.000408	0.000703
2161.6	-0.000428	0.000707
2162.6	-0.000448	0.000710
2163.6	-0.000468	0.000714
2164.6	-0.000488	0.000717
2165.6	-0.000508	0.000720
2166.6	-0.000528	0.000723
2167.6	-0.000548	0.000726
2168.6	-0.000567	0.000729
2169.6	-0.000587	0.000731
2170.6	-0.000607	0.000733
2171.6	-0.000626	0.000735
2172.6	-0.000646	0.000737
2173.6	-0.000665	0.000739
2174.6	-0.000685	0.000740
2175.6	-0.000704	0.000741
2176.6	-0.000723	0.000742
2177.6	-0.000742	0.000743
2178.6	-0.000761	0.000743
2179.6	-0.000780	0.000744
2180.6	-0.000798	0.000744
2181.6	-0.000817	0.000744
2182.6	-0.000835	0.000744
2183.6	-0.000853	0.000743
2184.6	-0.000872	0.000742
2185.6	-0.000889	0.000741
2186.6	-0.000907	0.000740
2187.6	-0.000925	0.000739
2188.6	-0.000942	0.000737
2189.6	-0.000959	0.000735
2190.7	-0.000976	0.000733
2191.7	-0.000993	0.000731
2192.7	-0.001010	0.000729
2193.7	-0.001026	0.000726
2194.7	-0.001043	0.000723
2195.7	-0.001059	0.000720
2196.7	-0.001075	0.000717
2197.7	-0.001090	0.000714
2198.7	-0.001106	0.000710
2199.7	-0.001121	0.000706
2200.7	-0.001136	0.000702
2201.7	-0.001151	0.000698
2202.7	-0.001166	0.000693
2203.7	-0.001180	0.000689
2204.7	-0.001194	0.000684
2205.7	-0.001208	0.000679
2206.7	-0.001222	0.000674
2207.7	-0.001235	0.000668
2208.7	-0.001249	0.000663
2209.7	-0.001262	0.000657
2210.7	-0.001275	0.000651
2211.7	-0.001287	0.000645
2212.7	-0.001300	0.000639
2213.7	-0.001312	0.000633
2214.7	-0.001324	0.000626
2215.7	-0.001335	0.000620
2216.7	-0.001347	0.000613
2217.7	-0.001358	0.000606
2218.7	-0.001369	0.000599
2219.7	-0.001380	0.000592
2220.7	-0.001390	0.000584
2221.7	-0.001401	0.000577
2222.7	-0.001411	0.000569
2223.7	-0.001421	0.000561
2224.7	-0.001430	0.000554
2225.7	-0.001440	0.000546
2226.7	-0.001449	0.000537
2227.7	-0.001458	0.000529
2228.7	-0.001467	0.000521
2229.7	-0.001475	0.000512
2230.7	-0.001483	0.000504
2231.7	-0.001492	0.000495
2232.7	-0.001499	0.000486
2233.7	-0.001507	0.000478
2234.7	-0.001514	0.000469
2235.7	-0.001522	0.000460
2236.7	-0.001529	0.000450
2237.7	-0.001535	0.000441
2238.7	-0.001542	0.000432
2239.7	-0.001548	0.000423
2240.7	-0.001554	0.000413
2241.7	-0.001560	0.000404
2242.7	-0.001566	0.000394
2243.7	-0.001572	0.000385
2244.7	-0.001577	0.000375
2245.7	-0.001582	0.000365
2246.7	-0.001587	0.000355
2247.7	-0.001592	0.000345
2248.7	-0.001596	0.000336
2249.7	-0.001600	0.000326
2250.7	-0.001605	0.000316
2251.7	-0.001608	0.000306
2252.7	-0.001612	0.000296
2253.7	-0.001616	0.000285
2254.7	-0.001619	0.000275
2255.7	-0.001622	0.000265
2256.7	-0.001625	0.000255
2257.7	-0.001628	0.000245
2258.7	-0.001631	0.000235
2259.7	-0.001633	0.000224
2260.7	-0.001636	0.000214
2261.7	-0.001638	0.000204
2262.7	-0.001640	0.000193
2263.7	-0.001642	0.000183
2264.7	-0.001644	0.000173
2265.7	-0.001645	0.000162
2266.7	-0.001646	0.000152
2267.7	-0.001648	0.000142
2268.7	-0.001649	0.000131
2269.7	-0.001650	0.000121
2270.7	-0.001650	0.000111
2271.7	-0.001651	0.000100
2272.7	-0.001651	0.000090
2273.7	-0.001652	0.000080
2274.7	-0.001652	0.000069
2275.7	-0.001652	0.000059
2276.7	-0.001652	0.000049
2277.7	-0.001651	0.000039
2278.8	-0.001651	0.000028
2279.8	-0.001651	0.000018
2280.8	-0.001650	0.000008
2281.8	-0.001649	-0.000002
2282.8	-0.001648	-0.000012
2283.8	-0.001647	-0.000023
2284.8	-0.001646	-0.000033
2285.8	-0.001645	-0.000043
2286.8	-0.001643	-0.000053
2287.8	-0.001642	-0.000063
2288.8	-0.001640	-0.000073
2289.8	-0.001639	-0.000083
2290.8	-0.001637	-0.000093
2291.8	-0.001635	-0.000103
2292.8	-0.001633	-0.000113
2293.8	-0.001631	-0.000122
2294.8	-0.001628	-0.000132
2295.8	-0.001626	-0.000142
2296.8	-0.001624	-0.000152
2297.8	-0.001621	-0.000161
2298.8	-0.001618	-0.000171
2299.8	-0.001616	-0.000181
2300.8	-0.001613	-0.000190
2301.8	-0.001610	-0.000200
2302.8	-0.001607	-0.000209
2303.8	-0.001604	-0.000219
2304.8	-0.001601	-0.000228
2305.8	-0.001598	-0.000237
2306.8	-0.001594	-0.000247
2307.8	-0.001591	-0.000256
2308.8	-0.001587	-0.000265
2309.8	-0.001584	-0.000274
2310.8	-0.001580	-0.000283
2311.8	-0.001576	-0.000292
2312.8	-0.001573	-0.000301
2313.8	-0.001569	-0.000310
2314.8	-0.001565	-0.000319
2315.8	-0.001561	-0.000328
2316.8	-0.001557	-0.000337
2317.8	-0.001553	-0.000345
2318.8	-0.001548	-0.000354
2319.8	-0.001544	-0.000363
2320.8	-0.001540	-0.000371
2321.8	-0.001535	-0.000380
2322.8	-0.001531	-0.000388
2323.8	-0.001527	-0.000397
2324.8	-0.001522	-0.000405
2325.8	-0.001517	-0.000413
2326.8	-0.001513	-0.000421
2327.8	-0.001508	-0.000430
2328.8	-0.001503	-0.000438
2329.8	-0.001499	-0.000446
2330.8	-0.001494	-0.000454
2331.8	-0.001489	-0.000462
2332.8	-0.001484	-0.000470
2333.8	-0.001479	-0.000478
2334.8	-0.001474	-0.000485
2335.8	-0.001469	-0.000493
2336.8	-0.001464	-0.000501
2337.8	-0.001458	-0.000508
2338.8	-0.001453	-0.000516
2339.8	-0.001448	-0.000524
2340.8	-0.001443	-0.000531
2341.8	-0.001437	-0.000538
2342.8	-0.001432	-0.000546
2343.8	-0.001427	-0.000553
2344.8	-0.001421	-0.000560
2345.8	-0.001416	-0.000567
2346.8	-0.001410	-0.000574
2347.8	-0.001405	-0.000582
2348.8	-0.001399	-0.000589
2349.8	-0.001394	-0.000595
2350.8	-0.001388	-0.000602
2351.8	-0.001382	-0.000609
2352.8	-0.001377	-0.000616
2353.8	-0.001371	-0.000623
2354.8	-0.001365	-0.000629
2355.8	-0.001360	-0.000636
2356.8	-0.001354	-0.000643
2357.8	-0.001348	-0.000649
2358.8	-0.001342	-0.000655
2359.8	-0.001336	-0.000662
2360.8	-0.001331	-0.000668
2361.8	-0.001325	-0.000674
2362.8	-0.001319	-0.000681
2363.8	-0.001313	-0.000687
2364.8	-0.001307	-0.000693
2365.8	-0.001301	-0.000699
2366.8	-0.001295	-0.000705
2367.9	-0.001289	-0.000711
2368.9	-0.001283	-0.000717
2369.9	-0.001277	-0.000723
2370.9	-0.001271	-0.000729
2371.9	-0.001265	-0.000734
2372.9	-0.001259	-0.000740
2373.9	-0.001253	-0.000746
2374.9	-0.001247	-0.000751
2375.9	-0.001241	-0.000757
2376.9	-0.001235	-0.000762
2377.9	-0.001229	-0.000768
2378.9	-0.001223	-0.000773
2379.9	-0.001216	-0.000778
2380.9	-0.001210	-0.000784
2381.9	-0.001204	-0.000789
2382.9	-0.001198	-0.000794
2383.9	-0.001192	-0.000799
2384.9	-0.001186	-0.000804
2385.9	-0.001180	-0.000809
