   W          E2-(pi0_p)
 (MeV)       Re        Im
 1074.00   -0.00958   0.00004
 1075.00   -0.02200   0.00010
 1076.00   -0.03425   0.00017
 1077.00   -0.04635   0.00023
 1078.00   -0.05830   0.00030
 1079.00   -0.07009   0.00037
 1080.00   -0.08174   0.00044
 1081.00   -0.09325   0.00051
 1082.00   -0.10461   0.00059
 1083.00   -0.11582   0.00067
 1084.00   -0.12691   0.00075
 1085.00   -0.13785   0.00083
 1086.00   -0.14866   0.00092
 1087.00   -0.15934   0.00101
 1088.00   -0.16988   0.00110
 1089.00   -0.18030   0.00119
 1090.00   -0.19059   0.00129
 1091.00   -0.20076   0.00139
 1092.00   -0.21080   0.00149
 1093.00   -0.22072   0.00160
 1094.00   -0.23052   0.00171
 1095.00   -0.24021   0.00182
 1096.00   -0.24977   0.00193
 1097.00   -0.25922   0.00205
 1098.00   -0.26856   0.00217
 1099.00   -0.27779   0.00229
 1100.00   -0.28690   0.00242
 1101.00   -0.29591   0.00255
 1102.00   -0.30481   0.00268
 1103.00   -0.31360   0.00281
 1104.00   -0.32228   0.00295
 1105.00   -0.33086   0.00309
 1106.00   -0.33934   0.00324
 1107.00   -0.34772   0.00339
 1108.00   -0.35600   0.00354
 1109.00   -0.36417   0.00369
 1110.00   -0.37225   0.00385
 1111.00   -0.38023   0.00401
 1112.00   -0.38812   0.00417
 1113.00   -0.39591   0.00434
 1114.00   -0.40361   0.00451
 1115.00   -0.41121   0.00469
 1116.00   -0.41872   0.00487
 1117.00   -0.42614   0.00505
 1118.00   -0.43348   0.00524
 1119.00   -0.44072   0.00543
 1120.00   -0.44787   0.00562
 1121.00   -0.45494   0.00582
 1122.00   -0.46192   0.00602
 1123.00   -0.46881   0.00622
 1124.00   -0.47562   0.00643
 1125.00   -0.48234   0.00664
 1126.00   -0.48898   0.00686
 1127.00   -0.49554   0.00708
 1128.00   -0.50202   0.00730
 1129.00   -0.50842   0.00753
 1130.00   -0.51473   0.00776
 1131.00   -0.52097   0.00800
 1132.00   -0.52712   0.00824
 1133.00   -0.53320   0.00848
 1134.00   -0.53920   0.00873
 1135.00   -0.54513   0.00899
 1136.00   -0.55097   0.00924
 1137.00   -0.55674   0.00950
 1138.00   -0.56244   0.00977
 1139.00   -0.56806   0.01004
 1140.00   -0.57361   0.01031
 1141.00   -0.57908   0.01059
 1142.00   -0.58449   0.01088
 1143.00   -0.58982   0.01116
 1144.00   -0.59507   0.01145
 1145.00   -0.60026   0.01175
 1146.00   -0.60537   0.01205
 1147.00   -0.61042   0.01236
 1148.00   -0.61539   0.01267
 1149.00   -0.62030   0.01298
 1150.00   -0.62514   0.01330
 1151.00   -0.62990   0.01363
 1152.00   -0.63460   0.01396
 1153.00   -0.63924   0.01429
 1154.00   -0.64380   0.01463
 1155.00   -0.64830   0.01498
 1156.00   -0.65274   0.01532
 1157.00   -0.65710   0.01568
 1158.00   -0.66140   0.01604
 1159.00   -0.66564   0.01640
 1160.00   -0.66981   0.01677
 1161.00   -0.67392   0.01714
 1162.00   -0.67796   0.01752
 1163.00   -0.68194   0.01791
 1164.00   -0.68586   0.01830
 1165.00   -0.68971   0.01869
 1166.00   -0.69350   0.01909
 1167.00   -0.69723   0.01950
 1168.00   -0.70090   0.01991
 1169.00   -0.70451   0.02033
 1170.00   -0.70805   0.02075
 1171.00   -0.71153   0.02118
 1172.00   -0.71495   0.02161
 1173.00   -0.71832   0.02205
 1174.00   -0.72162   0.02250
 1175.00   -0.72486   0.02295
 1176.00   -0.72804   0.02340
 1177.00   -0.73116   0.02387
 1178.00   -0.73423   0.02433
 1179.00   -0.73723   0.02481
 1180.00   -0.74018   0.02529
 1181.00   -0.74306   0.02577
 1182.00   -0.74589   0.02627
 1183.00   -0.74866   0.02677
 1184.00   -0.75138   0.02727
 1185.00   -0.75403   0.02778
 1186.00   -0.75663   0.02830
 1187.00   -0.75917   0.02882
 1188.00   -0.76165   0.02935
 1189.00   -0.76408   0.02989
 1190.00   -0.76645   0.03043
 1191.00   -0.76877   0.03098
 1192.00   -0.77102   0.03153
 1193.00   -0.77323   0.03210
 1194.00   -0.77537   0.03267
 1195.00   -0.77746   0.03324
 1196.00   -0.77950   0.03382
 1197.00   -0.78147   0.03441
 1198.00   -0.78340   0.03501
 1199.00   -0.78527   0.03562
 1200.00   -0.78708   0.03623
 1201.00   -0.78884   0.03684
 1202.00   -0.79054   0.03747
 1203.00   -0.79219   0.03810
 1204.00   -0.79378   0.03874
 1205.00   -0.79532   0.03939
 1206.00   -0.79681   0.04005
 1207.00   -0.79824   0.04071
 1208.00   -0.79962   0.04138
 1209.00   -0.80094   0.04206
 1210.00   -0.80221   0.04274
 1211.00   -0.80342   0.04344
 1212.00   -0.80458   0.04414
 1213.00   -0.80569   0.04485
 1214.00   -0.80674   0.04557
 1215.00   -0.80774   0.04629
 1216.00   -0.80868   0.04703
 1217.00   -0.80958   0.04777
 1218.00   -0.81041   0.04853
 1219.00   -0.81120   0.04929
 1220.00   -0.81193   0.05006
 1221.00   -0.81261   0.05083
 1222.00   -0.81323   0.05162
 1223.00   -0.81380   0.05242
 1224.00   -0.81432   0.05322
 1225.00   -0.81478   0.05404
 1226.00   -0.81519   0.05486
 1227.00   -0.81555   0.05569
 1228.00   -0.81585   0.05654
 1229.00   -0.81610   0.05739
 1230.00   -0.81630   0.05825
 1231.00   -0.81644   0.05913
 1232.00   -0.81653   0.06001
 1233.00   -0.81657   0.06090
 1234.00   -0.81655   0.06180
 1235.00   -0.81648   0.06272
 1236.00   -0.81636   0.06364
 1237.00   -0.81618   0.06458
 1238.00   -0.81594   0.06552
 1239.00   -0.81566   0.06648
 1240.00   -0.81532   0.06745
 1241.00   -0.81493   0.06843
 1242.00   -0.81448   0.06942
 1243.00   -0.81398   0.07042
 1244.00   -0.81342   0.07143
 1245.00   -0.81281   0.07246
 1246.00   -0.81215   0.07350
 1247.00   -0.81143   0.07455
 1248.00   -0.81066   0.07561
 1249.00   -0.80983   0.07669
 1250.00   -0.80895   0.07778
 1251.00   -0.80801   0.07888
 1252.00   -0.80702   0.08000
 1253.00   -0.80597   0.08112
 1254.00   -0.80487   0.08227
 1255.00   -0.80371   0.08342
 1256.00   -0.80250   0.08459
 1257.00   -0.80123   0.08578
 1258.00   -0.79990   0.08698
 1259.00   -0.79852   0.08819
 1260.00   -0.79709   0.08942
 1261.00   -0.79559   0.09067
 1262.00   -0.79404   0.09193
 1263.00   -0.79244   0.09320
 1264.00   -0.79077   0.09449
 1265.00   -0.78905   0.09580
 1266.00   -0.78728   0.09713
 1267.00   -0.78544   0.09847
 1268.00   -0.78355   0.09983
 1269.00   -0.78160   0.10120
 1270.00   -0.77959   0.10260
 1271.00   -0.77753   0.10401
 1272.00   -0.77540   0.10544
 1273.00   -0.77322   0.10689
 1274.00   -0.77098   0.10836
 1275.00   -0.76867   0.10984
 1276.00   -0.76631   0.11135
 1277.00   -0.76389   0.11288
 1278.00   -0.76141   0.11443
 1279.00   -0.75887   0.11600
 1280.00   -0.75627   0.11759
 1281.00   -0.75360   0.11920
 1282.00   -0.75088   0.12083
 1283.00   -0.74809   0.12249
 1284.00   -0.74525   0.12417
 1285.00   -0.74234   0.12587
 1286.00   -0.73937   0.12760
 1287.00   -0.73633   0.12935
 1288.00   -0.73323   0.13112
 1289.00   -0.73007   0.13292
 1290.00   -0.72685   0.13475
 1291.00   -0.72356   0.13660
 1292.00   -0.72020   0.13848
 1293.00   -0.71678   0.14039
 1294.00   -0.71330   0.14232
 1295.00   -0.70975   0.14429
 1296.00   -0.70613   0.14628
 1297.00   -0.70245   0.14830
 1298.00   -0.69870   0.15035
 1299.00   -0.69489   0.15244
 1300.00   -0.69100   0.15455
 1301.00   -0.68705   0.15670
 1302.00   -0.68303   0.15888
 1303.00   -0.67894   0.16109
 1304.00   -0.67478   0.16334
 1305.00   -0.67055   0.16562
 1306.00   -0.66625   0.16794
 1307.00   -0.66188   0.17029
 1308.00   -0.65744   0.17268
 1309.00   -0.65292   0.17511
 1310.00   -0.64834   0.17758
 1311.00   -0.64368   0.18009
 1312.00   -0.63895   0.18264
 1313.00   -0.63414   0.18523
 1314.00   -0.62926   0.18786
 1315.00   -0.62430   0.19053
 1316.00   -0.61927   0.19325
 1317.00   -0.61416   0.19602
 1318.00   -0.60898   0.19883
 1319.00   -0.60372   0.20169
 1320.00   -0.59838   0.20460
 1321.00   -0.59296   0.20756
 1322.00   -0.58746   0.21057
 1323.00   -0.58189   0.21363
 1324.00   -0.57623   0.21674
 1325.00   -0.57049   0.21991
 1326.00   -0.56467   0.22313
 1327.00   -0.55877   0.22641
 1328.00   -0.55279   0.22975
 1329.00   -0.54672   0.23315
 1330.00   -0.54057   0.23660
 1331.00   -0.53433   0.24013
 1332.00   -0.52801   0.24371
 1333.00   -0.52160   0.24736
 1334.00   -0.51511   0.25108
 1335.00   -0.50853   0.25487
 1336.00   -0.50186   0.25872
 1337.00   -0.49510   0.26265
 1338.00   -0.48825   0.26665
 1339.00   -0.48131   0.27073
 1340.00   -0.47428   0.27488
 1341.00   -0.46716   0.27912
 1342.00   -0.45995   0.28343
 1343.00   -0.45264   0.28783
 1344.00   -0.44524   0.29231
 1345.00   -0.43775   0.29688
 1346.00   -0.43016   0.30155
 1347.00   -0.42247   0.30630
 1348.00   -0.41469   0.31114
 1349.00   -0.40681   0.31608
 1350.00   -0.39883   0.32113
 1351.00   -0.39076   0.32627
 1352.00   -0.38258   0.33151
 1353.00   -0.37430   0.33686
 1354.00   -0.36593   0.34233
 1355.00   -0.35745   0.34790
 1356.00   -0.34887   0.35359
 1357.00   -0.34018   0.35939
 1358.00   -0.33140   0.36532
 1359.00   -0.32250   0.37137
 1360.00   -0.31351   0.37755
 1361.00   -0.30440   0.38385
 1362.00   -0.29520   0.39029
 1363.00   -0.28588   0.39687
 1364.00   -0.27646   0.40359
 1365.00   -0.26693   0.41045
 1366.00   -0.25729   0.41746
 1367.00   -0.24754   0.42463
 1368.00   -0.23768   0.43195
 1369.00   -0.22771   0.43943
 1370.00   -0.21764   0.44707
 1371.00   -0.20745   0.45488
 1372.00   -0.19715   0.46287
 1373.00   -0.18674   0.47103
 1374.00   -0.17621   0.47938
 1375.00   -0.16558   0.48791
 1376.00   -0.15483   0.49664
 1377.00   -0.14398   0.50556
 1378.00   -0.13301   0.51469
 1379.00   -0.12192   0.52403
 1380.00   -0.11073   0.53358
 1381.00   -0.09943   0.54334
 1382.00   -0.08801   0.55334
 1383.00   -0.07648   0.56357
 1384.00   -0.06484   0.57403
 1385.00   -0.05309   0.58474
 1386.00   -0.04124   0.59570
 1387.00   -0.02927   0.60692
 1388.00   -0.01720   0.61841
 1389.00   -0.00502   0.63016
 1390.00    0.00727   0.64220
 1391.00    0.01966   0.65452
 1392.00    0.03215   0.66714
 1393.00    0.04475   0.68006
 1394.00    0.05744   0.69330
 1395.00    0.07023   0.70685
 1396.00    0.08311   0.72074
 1397.00    0.09609   0.73496
 1398.00    0.10916   0.74952
 1399.00    0.12231   0.76445
 1400.00    0.13555   0.77974
 1401.00    0.14887   0.79541
 1402.00    0.16227   0.81146
 1403.00    0.17574   0.82791
 1404.00    0.18928   0.84477
 1405.00    0.20288   0.86204
 1406.00    0.21654   0.87975
 1407.00    0.23025   0.89790
 1408.00    0.24402   0.91650
 1409.00    0.25782   0.93556
 1410.00    0.27166   0.95511
 1411.00    0.28552   0.97514
 1412.00    0.29941   0.99568
 1413.00    0.31331   1.01674
 1414.00    0.32721   1.03832
 1415.00    0.34110   1.06045
 1416.00    0.35498   1.08313
 1417.00    0.36884   1.10639
 1418.00    0.38265   1.13023
 1419.00    0.39642   1.15468
 1420.00    0.41012   1.17974
 1421.00    0.42374   1.20543
 1422.00    0.43728   1.23177
 1423.00    0.45071   1.25877
 1424.00    0.46401   1.28645
 1425.00    0.47718   1.31482
 1426.00    0.49019   1.34390
 1427.00    0.50302   1.37371
 1428.00    0.51565   1.40426
 1429.00    0.52807   1.43556
 1430.00    0.54024   1.46764
 1431.00    0.55215   1.50051
 1432.00    0.56376   1.53418
 1433.00    0.57506   1.56867
 1434.00    0.58601   1.60400
 1435.00    0.59658   1.64018
 1436.00    0.60675   1.67722
 1437.00    0.61647   1.71515
 1438.00    0.62572   1.75396
 1439.00    0.63446   1.79369
 1440.00    0.64265   1.83433
 1441.00    0.65024   1.87590
 1442.00    0.65721   1.91841
 1443.00    0.66350   1.96187
 1444.00    0.66907   2.00629
 1445.00    0.67388   2.05167
 1446.00    0.67786   2.09802
 1447.00    0.68098   2.14534
 1448.00    0.68317   2.19363
 1449.00    0.68439   2.24290
 1450.00    0.68457   2.29314
 1451.00    0.68366   2.34435
 1452.00    0.68158   2.39651
 1453.00    0.67829   2.44961
 1454.00    0.67372   2.50365
 1455.00    0.66779   2.55860
 1456.00    0.66045   2.61445
 1457.00    0.65161   2.67117
 1458.00    0.64121   2.72872
 1459.00    0.62918   2.78708
 1460.00    0.61545   2.84622
 1461.00    0.59993   2.90607
 1462.00    0.58256   2.96661
 1463.00    0.56327   3.02777
 1464.00    0.54197   3.08950
 1465.00    0.51859   3.15173
 1466.00    0.49307   3.21439
 1467.00    0.46533   3.27740
 1468.00    0.43530   3.34069
 1469.00    0.40292   3.40416
 1470.00    0.36813   3.46772
 1471.00    0.33086   3.53126
 1472.00    0.29105   3.59468
 1473.00    0.24867   3.65786
 1474.00    0.20365   3.72068
 1475.00    0.15597   3.78301
 1476.00    0.10560   3.84473
 1477.00    0.05249   3.90569
 1478.00   -0.00335   3.96575
 1479.00   -0.06194   4.02477
 1480.00   -0.12329   4.08258
 1481.00   -0.18737   4.13904
 1482.00   -0.25416   4.19399
 1483.00   -0.32364   4.24727
 1484.00   -0.39577   4.29873
 1485.00   -0.47048   4.34819
 1486.00   -0.54771   4.39551
 1487.00   -0.62738   4.44053
 1488.00   -0.70941   4.48309
 1489.00   -0.79368   4.52304
 1490.00   -0.88009   4.56025
 1491.00   -0.96852   4.59456
 1492.00   -1.05882   4.62587
 1493.00   -1.15084   4.65403
 1494.00   -1.24445   4.67895
 1495.00   -1.33946   4.70051
 1496.00   -1.43571   4.71864
 1497.00   -1.53301   4.73324
 1498.00   -1.63119   4.74427
 1499.00   -1.73004   4.75166
 1500.00   -1.82939   4.75537
 1501.00   -1.92902   4.75539
 1502.00   -2.02875   4.75170
 1503.00   -2.12838   4.74431
 1504.00   -2.22771   4.73323
 1505.00   -2.32654   4.71850
 1506.00   -2.42469   4.70016
 1507.00   -2.52198   4.67827
 1508.00   -2.61823   4.65290
 1509.00   -2.71326   4.62414
 1510.00   -2.80692   4.59206
 1511.00   -2.89905   4.55679
 1512.00   -2.98950   4.51841
 1513.00   -3.07814   4.47707
 1514.00   -3.16485   4.43288
 1515.00   -3.24950   4.38597
 1516.00   -3.33201   4.33648
 1517.00   -3.41227   4.28455
 1518.00   -3.49021   4.23032
 1519.00   -3.56576   4.17394
 1520.00   -3.63885   4.11555
 1521.00   -3.70944   4.05531
 1522.00   -3.77748   3.99335
 1523.00   -3.84296   3.92981
 1524.00   -3.90585   3.86485
 1525.00   -3.96614   3.79859
 1526.00   -4.02382   3.73117
 1527.00   -4.07891   3.66273
 1528.00   -4.13142   3.59339
 1529.00   -4.18136   3.52328
 1530.00   -4.22875   3.45250
 1531.00   -4.27364   3.38118
 1532.00   -4.31605   3.30942
 1533.00   -4.35603   3.23733
 1534.00   -4.39362   3.16499
 1535.00   -4.42887   3.09250
 1536.00   -4.46182   3.01996
 1537.00   -4.49253   2.94742
 1538.00   -4.52106   2.87498
 1539.00   -4.54745   2.80271
 1540.00   -4.57177   2.73065
 1541.00   -4.59408   2.65889
 1542.00   -4.61443   2.58747
 1543.00   -4.63287   2.51643
 1544.00   -4.64948   2.44584
 1545.00   -4.66431   2.37573
 1546.00   -4.67742   2.30614
 1547.00   -4.68886   2.23710
 1548.00   -4.69869   2.16864
 1549.00   -4.70696   2.10080
 1550.00   -4.71374   2.03359
 1551.00   -4.71907   1.96705
 1552.00   -4.72301   1.90117
 1553.00   -4.72560   1.83600
 1554.00   -4.72690   1.77153
 1555.00   -4.72696   1.70777
 1556.00   -4.72581   1.64475
 1557.00   -4.72351   1.58246
 1558.00   -4.72010   1.52092
 1559.00   -4.71561   1.46012
 1560.00   -4.71010   1.40008
 1561.00   -4.70360   1.34078
 1562.00   -4.69615   1.28224
 1563.00   -4.68777   1.22445
 1564.00   -4.67852   1.16741
 1565.00   -4.66842   1.11112
 1566.00   -4.65749   1.05558
 1567.00   -4.64579   1.00078
 1568.00   -4.63332   0.94671
 1569.00   -4.62012   0.89338
 1570.00   -4.60622   0.84078
 1571.00   -4.59164   0.78890
 1572.00   -4.57640   0.73773
 1573.00   -4.56054   0.68728
 1574.00   -4.54406   0.63754
 1575.00   -4.52700   0.58849
 1576.00   -4.50937   0.54013
 1577.00   -4.49119   0.49246
 1578.00   -4.47249   0.44546
 1579.00   -4.45327   0.39914
 1580.00   -4.43355   0.35348
 1581.00   -4.41336   0.30848
 1582.00   -4.39270   0.26414
 1583.00   -4.37159   0.22044
 1584.00   -4.35005   0.17738
 1585.00   -4.32808   0.13495
 1586.00   -4.30571   0.09315
 1587.00   -4.28294   0.05198
 1588.00   -4.25978   0.01142
 1589.00   -4.23625  -0.02853
 1590.00   -4.21236  -0.06788
 1591.00   -4.18812  -0.10662
 1592.00   -4.16353  -0.14477
 1593.00   -4.13861  -0.18233
 1594.00   -4.11337  -0.21931
 1595.00   -4.08781  -0.25570
 1596.00   -4.06195  -0.29151
 1597.00   -4.03579  -0.32675
 1598.00   -4.00934  -0.36143
 1599.00   -3.98262  -0.39553
 1600.00   -3.95562  -0.42908
 1601.00   -3.92836  -0.46206
 1602.00   -3.90084  -0.49449
 1603.00   -3.87307  -0.52637
 1604.00   -3.84506  -0.55769
 1605.00   -3.81681  -0.58847
 1606.00   -3.78834  -0.61870
 1607.00   -3.75965  -0.64839
 1608.00   -3.73074  -0.67755
 1609.00   -3.70162  -0.70616
 1610.00   -3.67231  -0.73423
 1611.00   -3.64281  -0.76178
 1612.00   -3.61311  -0.78879
 1613.00   -3.58324  -0.81527
 1614.00   -3.55320  -0.84122
 1615.00   -3.52299  -0.86664
 1616.00   -3.49263  -0.89154
 1617.00   -3.46211  -0.91592
 1618.00   -3.43144  -0.93977
 1619.00   -3.40064  -0.96310
 1620.00   -3.36971  -0.98591
 1621.00   -3.33865  -1.00820
 1622.00   -3.30748  -1.02998
 1623.00   -3.27619  -1.05124
 1624.00   -3.24480  -1.07199
 1625.00   -3.21332  -1.09223
 1626.00   -3.18174  -1.11196
 1627.00   -3.15009  -1.13117
 1628.00   -3.11835  -1.14988
 1629.00   -3.08655  -1.16809
 1630.00   -3.05469  -1.18579
 1631.00   -3.02278  -1.20299
 1632.00   -2.99081  -1.21969
 1633.00   -2.95881  -1.23589
 1634.00   -2.92678  -1.25160
 1635.00   -2.89472  -1.26681
 1636.00   -2.86264  -1.28153
 1637.00   -2.83056  -1.29576
 1638.00   -2.79846  -1.30950
 1639.00   -2.76638  -1.32276
 1640.00   -2.73430  -1.33554
 1641.00   -2.70224  -1.34784
 1642.00   -2.67021  -1.35967
 1643.00   -2.63821  -1.37102
 1644.00   -2.60625  -1.38191
 1645.00   -2.57434  -1.39232
 1646.00   -2.54247  -1.40228
 1647.00   -2.51067  -1.41178
 1648.00   -2.47894  -1.42082
 1649.00   -2.44728  -1.42941
 1650.00   -2.41570  -1.43755
 1651.00   -2.38421  -1.44525
 1652.00   -2.35282  -1.45251
 1653.00   -2.32152  -1.45934
 1654.00   -2.29033  -1.46574
 1655.00   -2.25926  -1.47171
 1656.00   -2.22830  -1.47726
 1657.00   -2.19747  -1.48239
 1658.00   -2.16677  -1.48711
 1659.00   -2.13621  -1.49143
 1660.00   -2.10580  -1.49535
 1661.00   -2.07553  -1.49887
 1662.00   -2.04541  -1.50200
 1663.00   -2.01546  -1.50475
 1664.00   -1.98567  -1.50712
 1665.00   -1.95605  -1.50911
 1666.00   -1.92660  -1.51074
 1667.00   -1.89734  -1.51200
 1668.00   -1.86826  -1.51291
 1669.00   -1.83937  -1.51347
 1670.00   -1.81067  -1.51369
 1671.00   -1.78217  -1.51357
 1672.00   -1.75387  -1.51311
 1673.00   -1.72577  -1.51234
 1674.00   -1.69788  -1.51124
 1675.00   -1.67021  -1.50983
 1676.00   -1.64275  -1.50811
 1677.00   -1.61551  -1.50609
 1678.00   -1.58850  -1.50378
 1679.00   -1.56170  -1.50118
 1680.00   -1.53514  -1.49830
 1681.00   -1.50880  -1.49515
 1682.00   -1.48270  -1.49173
 1683.00   -1.45683  -1.48804
 1684.00   -1.43120  -1.48410
 1685.00   -1.40581  -1.47991
 1686.00   -1.38066  -1.47548
 1687.00   -1.35575  -1.47081
 1688.00   -1.33108  -1.46592
 1689.00   -1.30666  -1.46080
 1690.00   -1.28249  -1.45546
 1691.00   -1.25856  -1.44991
 1692.00   -1.23488  -1.44415
 1693.00   -1.21144  -1.43820
 1694.00   -1.18826  -1.43205
 1695.00   -1.16533  -1.42572
 1696.00   -1.14264  -1.41920
 1697.00   -1.12021  -1.41251
 1698.00   -1.09803  -1.40566
 1699.00   -1.07609  -1.39863
 1700.00   -1.05441  -1.39145
 1701.00   -1.03298  -1.38412
 1702.00   -1.01179  -1.37665
 1703.00   -0.99085  -1.36903
 1704.00   -0.97017  -1.36127
 1705.00   -0.94972  -1.35339
 1706.00   -0.92953  -1.34538
 1707.00   -0.90958  -1.33725
 1708.00   -0.88988  -1.32901
 1709.00   -0.87041  -1.32066
 1710.00   -0.85119  -1.31220
 1711.00   -0.83222  -1.30364
 1712.00   -0.81348  -1.29499
 1713.00   -0.79498  -1.28625
 1714.00   -0.77671  -1.27742
 1715.00   -0.75868  -1.26851
 1716.00   -0.74089  -1.25953
 1717.00   -0.72332  -1.25047
 1718.00   -0.70599  -1.24134
 1719.00   -0.68888  -1.23215
 1720.00   -0.67200  -1.22290
 1721.00   -0.65535  -1.21359
 1722.00   -0.63891  -1.20423
 1723.00   -0.62270  -1.19482
 1724.00   -0.60671  -1.18537
 1725.00   -0.59093  -1.17587
 1726.00   -0.57537  -1.16633
 1727.00   -0.56001  -1.15677
 1728.00   -0.54487  -1.14717
 1729.00   -0.52994  -1.13754
 1730.00   -0.51521  -1.12788
 1731.00   -0.50068  -1.11821
 1732.00   -0.48635  -1.10851
 1733.00   -0.47223  -1.09880
 1734.00   -0.45830  -1.08908
 1735.00   -0.44456  -1.07935
 1736.00   -0.43101  -1.06960
 1737.00   -0.41766  -1.05985
