   W          E2-(pi0_p)
 (MeV)       Re        Im
 1074.00   -0.00970   0.00000
 1075.00   -0.02226   0.00000
 1076.00   -0.03467   0.00000
 1077.00   -0.04693   0.00000
 1078.00   -0.05905   0.00000
 1079.00   -0.07102   0.00000
 1080.00   -0.08285   0.00000
 1081.00   -0.09454   0.00000
 1082.00   -0.10609   0.00000
 1083.00   -0.11751   0.00000
 1084.00   -0.12880   0.00000
 1085.00   -0.13995   0.00000
 1086.00   -0.15098   0.00000
 1087.00   -0.16189   0.00000
 1088.00   -0.17267   0.00000
 1089.00   -0.18333   0.00000
 1090.00   -0.19387   0.00000
 1091.00   -0.20429   0.00000
 1092.00   -0.21460   0.00000
 1093.00   -0.22479   0.00000
 1094.00   -0.23487   0.00000
 1095.00   -0.24484   0.00000
 1096.00   -0.25470   0.00000
 1097.00   -0.26446   0.00000
 1098.00   -0.27410   0.00000
 1099.00   -0.28365   0.00000
 1100.00   -0.29309   0.00000
 1101.00   -0.30243   0.00000
 1102.00   -0.31168   0.00000
 1103.00   -0.32082   0.00000
 1104.00   -0.32987   0.00000
 1105.00   -0.33882   0.00000
 1106.00   -0.34768   0.00000
 1107.00   -0.35644   0.00000
 1108.00   -0.36512   0.00000
 1109.00   -0.37370   0.00000
 1110.00   -0.38220   0.00000
 1111.00   -0.39061   0.00000
 1112.00   -0.39893   0.00000
 1113.00   -0.40717   0.00000
 1114.00   -0.41532   0.00000
 1115.00   -0.42339   0.00000
 1116.00   -0.43138   0.00000
 1117.00   -0.43929   0.00000
 1118.00   -0.44711   0.00000
 1119.00   -0.45486   0.00000
 1120.00   -0.46254   0.00000
 1121.00   -0.47013   0.00000
 1122.00   -0.47765   0.00000
 1123.00   -0.48509   0.00000
 1124.00   -0.49247   0.00000
 1125.00   -0.49976   0.00000
 1126.00   -0.50699   0.00000
 1127.00   -0.51414   0.00000
 1128.00   -0.52123   0.00000
 1129.00   -0.52824   0.00000
 1130.00   -0.53519   0.00000
 1131.00   -0.54207   0.00000
 1132.00   -0.54888   0.00000
 1133.00   -0.55563   0.00000
 1134.00   -0.56231   0.00000
 1135.00   -0.56892   0.00000
 1136.00   -0.57547   0.00000
 1137.00   -0.58196   0.00000
 1138.00   -0.58839   0.00000
 1139.00   -0.59475   0.00000
 1140.00   -0.60106   0.00000
 1141.00   -0.60730   0.00000
 1142.00   -0.61349   0.00000
 1143.00   -0.61961   0.00000
 1144.00   -0.62568   0.00000
 1145.00   -0.63169   0.00000
 1146.00   -0.63764   0.00000
 1147.00   -0.64353   0.00000
 1148.00   -0.64938   0.00000
 1149.00   -0.65516   0.00000
 1150.00   -0.66089   0.00000
 1151.00   -0.66657   0.00000
 1152.00   -0.67219   0.00000
 1153.00   -0.67776   0.00000
 1154.00   -0.68328   0.00000
 1155.00   -0.68875   0.00000
 1156.00   -0.69416   0.00000
 1157.00   -0.69953   0.00000
 1158.00   -0.70484   0.00000
 1159.00   -0.71011   0.00000
 1160.00   -0.71532   0.00000
 1161.00   -0.72049   0.00000
 1162.00   -0.72561   0.00000
 1163.00   -0.73068   0.00000
 1164.00   -0.73571   0.00000
 1165.00   -0.74069   0.00000
 1166.00   -0.74562   0.00000
 1167.00   -0.75050   0.00000
 1168.00   -0.75535   0.00000
 1169.00   -0.76014   0.00000
 1170.00   -0.76490   0.00000
 1171.00   -0.76960   0.00000
 1172.00   -0.77427   0.00000
 1173.00   -0.77889   0.00000
 1174.00   -0.78347   0.00000
 1175.00   -0.78801   0.00000
 1176.00   -0.79251   0.00000
 1177.00   -0.79696   0.00000
 1178.00   -0.80137   0.00000
 1179.00   -0.80575   0.00000
 1180.00   -0.81008   0.00000
 1181.00   -0.81437   0.00000
 1182.00   -0.81863   0.00000
 1183.00   -0.82284   0.00000
 1184.00   -0.82702   0.00000
 1185.00   -0.83116   0.00000
 1186.00   -0.83526   0.00000
 1187.00   -0.83932   0.00000
 1188.00   -0.84335   0.00000
 1189.00   -0.84733   0.00000
 1190.00   -0.85129   0.00000
 1191.00   -0.85520   0.00000
 1192.00   -0.85908   0.00000
 1193.00   -0.86293   0.00000
 1194.00   -0.86674   0.00000
 1195.00   -0.87051   0.00000
 1196.00   -0.87425   0.00000
 1197.00   -0.87796   0.00000
 1198.00   -0.88163   0.00000
 1199.00   -0.88527   0.00000
 1200.00   -0.88887   0.00000
 1201.00   -0.89245   0.00000
 1202.00   -0.89598   0.00000
 1203.00   -0.89949   0.00000
 1204.00   -0.90297   0.00000
 1205.00   -0.90641   0.00000
 1206.00   -0.90982   0.00000
 1207.00   -0.91320   0.00000
 1208.00   -0.91655   0.00000
 1209.00   -0.91987   0.00000
 1210.00   -0.92316   0.00000
 1211.00   -0.92642   0.00000
 1212.00   -0.92964   0.00000
 1213.00   -0.93284   0.00000
 1214.00   -0.93601   0.00000
 1215.00   -0.93915   0.00000
 1216.00   -0.94226   0.00000
 1217.00   -0.94535   0.00000
 1218.00   -0.94840   0.00000
 1219.00   -0.95143   0.00000
 1220.00   -0.95443   0.00000
 1221.00   -0.95740   0.00000
 1222.00   -0.96034   0.00000
 1223.00   -0.96326   0.00000
 1224.00   -0.96615   0.00000
 1225.00   -0.96901   0.00000
 1226.00   -0.97184   0.00000
 1227.00   -0.97465   0.00000
 1228.00   -0.97744   0.00000
 1229.00   -0.98020   0.00000
 1230.00   -0.98293   0.00000
 1231.00   -0.98564   0.00000
 1232.00   -0.98832   0.00000
 1233.00   -0.99098   0.00000
 1234.00   -0.99361   0.00000
 1235.00   -0.99622   0.00000
 1236.00   -0.99880   0.00000
 1237.00   -1.00136   0.00000
 1238.00   -1.00390   0.00000
 1239.00   -1.00641   0.00000
 1240.00   -1.00890   0.00000
 1241.00   -1.01136   0.00000
 1242.00   -1.01380   0.00000
 1243.00   -1.01622   0.00000
 1244.00   -1.01862   0.00000
 1245.00   -1.02099   0.00000
 1246.00   -1.02335   0.00000
 1247.00   -1.02568   0.00000
 1248.00   -1.02798   0.00000
 1249.00   -1.03027   0.00000
 1250.00   -1.03253   0.00000
 1251.00   -1.03478   0.00000
 1252.00   -1.03700   0.00000
 1253.00   -1.03920   0.00000
 1254.00   -1.04138   0.00000
 1255.00   -1.04354   0.00000
 1256.00   -1.04567   0.00000
 1257.00   -1.04779   0.00000
 1258.00   -1.04989   0.00000
 1259.00   -1.05197   0.00000
 1260.00   -1.05402   0.00000
 1261.00   -1.05606   0.00000
 1262.00   -1.05808   0.00000
 1263.00   -1.06008   0.00000
 1264.00   -1.06206   0.00000
 1265.00   -1.06402   0.00000
 1266.00   -1.06596   0.00000
 1267.00   -1.06788   0.00000
 1268.00   -1.06979   0.00000
 1269.00   -1.07167   0.00000
 1270.00   -1.07354   0.00000
 1271.00   -1.07539   0.00000
 1272.00   -1.07722   0.00000
 1273.00   -1.07903   0.00000
 1274.00   -1.08083   0.00000
 1275.00   -1.08261   0.00000
 1276.00   -1.08437   0.00000
 1277.00   -1.08611   0.00000
 1278.00   -1.08783   0.00000
 1279.00   -1.08954   0.00000
 1280.00   -1.09123   0.00000
 1281.00   -1.09291   0.00000
 1282.00   -1.09457   0.00000
 1283.00   -1.09621   0.00000
 1284.00   -1.09783   0.00000
 1285.00   -1.09944   0.00000
 1286.00   -1.10103   0.00000
 1287.00   -1.10261   0.00000
 1288.00   -1.10417   0.00000
 1289.00   -1.10571   0.00000
 1290.00   -1.10724   0.00000
 1291.00   -1.10876   0.00000
 1292.00   -1.11025   0.00000
 1293.00   -1.11174   0.00000
 1294.00   -1.11321   0.00000
 1295.00   -1.11466   0.00000
 1296.00   -1.11610   0.00000
 1297.00   -1.11752   0.00000
 1298.00   -1.11893   0.00000
 1299.00   -1.12032   0.00000
 1300.00   -1.12170   0.00000
 1301.00   -1.12306   0.00000
 1302.00   -1.12441   0.00000
 1303.00   -1.12575   0.00000
 1304.00   -1.12707   0.00000
 1305.00   -1.12838   0.00000
 1306.00   -1.12967   0.00000
 1307.00   -1.13095   0.00000
 1308.00   -1.13222   0.00000
 1309.00   -1.13348   0.00000
 1310.00   -1.13472   0.00000
 1311.00   -1.13594   0.00000
 1312.00   -1.13716   0.00000
 1313.00   -1.13836   0.00000
 1314.00   -1.13954   0.00000
 1315.00   -1.14072   0.00000
 1316.00   -1.14188   0.00000
 1317.00   -1.14303   0.00000
 1318.00   -1.14417   0.00000
 1319.00   -1.14529   0.00000
 1320.00   -1.14640   0.00000
 1321.00   -1.14750   0.00000
 1322.00   -1.14859   0.00000
 1323.00   -1.14966   0.00000
 1324.00   -1.15073   0.00000
 1325.00   -1.15178   0.00000
 1326.00   -1.15282   0.00000
 1327.00   -1.15384   0.00000
 1328.00   -1.15486   0.00000
 1329.00   -1.15586   0.00000
 1330.00   -1.15685   0.00000
 1331.00   -1.15784   0.00000
 1332.00   -1.15880   0.00000
 1333.00   -1.15976   0.00000
 1334.00   -1.16071   0.00000
 1335.00   -1.16165   0.00000
 1336.00   -1.16257   0.00000
 1337.00   -1.16349   0.00000
 1338.00   -1.16439   0.00000
 1339.00   -1.16528   0.00000
 1340.00   -1.16616   0.00000
 1341.00   -1.16704   0.00000
 1342.00   -1.16790   0.00000
 1343.00   -1.16875   0.00000
 1344.00   -1.16959   0.00000
 1345.00   -1.17042   0.00000
 1346.00   -1.17124   0.00000
 1347.00   -1.17205   0.00000
 1348.00   -1.17284   0.00000
 1349.00   -1.17363   0.00000
 1350.00   -1.17441   0.00000
 1351.00   -1.17518   0.00000
 1352.00   -1.17594   0.00000
 1353.00   -1.17669   0.00000
 1354.00   -1.17743   0.00000
 1355.00   -1.17816   0.00000
 1356.00   -1.17889   0.00000
 1357.00   -1.17960   0.00000
 1358.00   -1.18030   0.00000
 1359.00   -1.18099   0.00000
 1360.00   -1.18168   0.00000
 1361.00   -1.18235   0.00000
 1362.00   -1.18302   0.00000
 1363.00   -1.18368   0.00000
 1364.00   -1.18433   0.00000
 1365.00   -1.18496   0.00000
 1366.00   -1.18559   0.00000
 1367.00   -1.18622   0.00000
 1368.00   -1.18683   0.00000
 1369.00   -1.18743   0.00000
 1370.00   -1.18803   0.00000
 1371.00   -1.18862   0.00000
 1372.00   -1.18920   0.00000
 1373.00   -1.18977   0.00000
 1374.00   -1.19033   0.00000
 1375.00   -1.19088   0.00000
 1376.00   -1.19143   0.00000
 1377.00   -1.19197   0.00000
 1378.00   -1.19250   0.00000
 1379.00   -1.19302   0.00000
 1380.00   -1.19353   0.00000
 1381.00   -1.19404   0.00000
 1382.00   -1.19453   0.00000
 1383.00   -1.19502   0.00000
 1384.00   -1.19551   0.00000
 1385.00   -1.19598   0.00000
 1386.00   -1.19645   0.00000
 1387.00   -1.19691   0.00000
 1388.00   -1.19736   0.00000
 1389.00   -1.19780   0.00000
 1390.00   -1.19824   0.00000
 1391.00   -1.19867   0.00000
 1392.00   -1.19909   0.00000
 1393.00   -1.19951   0.00000
 1394.00   -1.19992   0.00000
 1395.00   -1.20032   0.00000
 1396.00   -1.20071   0.00000
 1397.00   -1.20110   0.00000
 1398.00   -1.20148   0.00000
 1399.00   -1.20185   0.00000
 1400.00   -1.20221   0.00000
 1401.00   -1.20257   0.00000
 1402.00   -1.20292   0.00000
 1403.00   -1.20327   0.00000
 1404.00   -1.20361   0.00000
 1405.00   -1.20394   0.00000
 1406.00   -1.20427   0.00000
 1407.00   -1.20458   0.00000
 1408.00   -1.20490   0.00000
 1409.00   -1.20520   0.00000
 1410.00   -1.20550   0.00000
 1411.00   -1.20579   0.00000
 1412.00   -1.20608   0.00000
 1413.00   -1.20636   0.00000
 1414.00   -1.20664   0.00000
 1415.00   -1.20690   0.00000
 1416.00   -1.20716   0.00000
 1417.00   -1.20742   0.00000
 1418.00   -1.20767   0.00000
 1419.00   -1.20791   0.00000
 1420.00   -1.20815   0.00000
 1421.00   -1.20838   0.00000
 1422.00   -1.20861   0.00000
 1423.00   -1.20883   0.00000
 1424.00   -1.20904   0.00000
 1425.00   -1.20925   0.00000
 1426.00   -1.20945   0.00000
 1427.00   -1.20965   0.00000
 1428.00   -1.20984   0.00000
 1429.00   -1.21002   0.00000
 1430.00   -1.21020   0.00000
 1431.00   -1.21038   0.00000
 1432.00   -1.21054   0.00000
 1433.00   -1.21071   0.00000
 1434.00   -1.21087   0.00000
 1435.00   -1.21102   0.00000
 1436.00   -1.21116   0.00000
 1437.00   -1.21131   0.00000
 1438.00   -1.21144   0.00000
 1439.00   -1.21157   0.00000
 1440.00   -1.21170   0.00000
 1441.00   -1.21182   0.00000
 1442.00   -1.21193   0.00000
 1443.00   -1.21204   0.00000
 1444.00   -1.21215   0.00000
 1445.00   -1.21225   0.00000
 1446.00   -1.21234   0.00000
 1447.00   -1.21243   0.00000
 1448.00   -1.21252   0.00000
 1449.00   -1.21260   0.00000
 1450.00   -1.21267   0.00000
 1451.00   -1.21274   0.00000
 1452.00   -1.21281   0.00000
 1453.00   -1.21287   0.00000
 1454.00   -1.21292   0.00000
 1455.00   -1.21297   0.00000
 1456.00   -1.21302   0.00000
 1457.00   -1.21306   0.00000
 1458.00   -1.21310   0.00000
 1459.00   -1.21313   0.00000
 1460.00   -1.21316   0.00000
 1461.00   -1.21318   0.00000
 1462.00   -1.21320   0.00000
 1463.00   -1.21322   0.00000
 1464.00   -1.21323   0.00000
 1465.00   -1.21323   0.00000
 1466.00   -1.21323   0.00000
 1467.00   -1.21323   0.00000
 1468.00   -1.21322   0.00000
 1469.00   -1.21321   0.00000
 1470.00   -1.21319   0.00000
 1471.00   -1.21317   0.00000
 1472.00   -1.21315   0.00000
 1473.00   -1.21312   0.00000
 1474.00   -1.21308   0.00000
 1475.00   -1.21305   0.00000
 1476.00   -1.21300   0.00000
 1477.00   -1.21296   0.00000
 1478.00   -1.21291   0.00000
 1479.00   -1.21286   0.00000
 1480.00   -1.21280   0.00000
 1481.00   -1.21274   0.00000
 1482.00   -1.21267   0.00000
 1483.00   -1.21260   0.00000
 1484.00   -1.21253   0.00000
 1485.00   -1.21245   0.00000
 1486.00   -1.21237   0.00000
 1487.00   -1.21228   0.00000
 1488.00   -1.21219   0.00000
 1489.00   -1.21210   0.00000
 1490.00   -1.21200   0.00000
 1491.00   -1.21190   0.00000
 1492.00   -1.21180   0.00000
 1493.00   -1.21169   0.00000
 1494.00   -1.21158   0.00000
 1495.00   -1.21146   0.00000
 1496.00   -1.21134   0.00000
 1497.00   -1.21122   0.00000
 1498.00   -1.21110   0.00000
 1499.00   -1.21097   0.00000
 1500.00   -1.21083   0.00000
 1501.00   -1.21070   0.00000
 1502.00   -1.21056   0.00000
 1503.00   -1.21041   0.00000
 1504.00   -1.21026   0.00000
 1505.00   -1.21011   0.00000
 1506.00   -1.20996   0.00000
 1507.00   -1.20980   0.00000
 1508.00   -1.20964   0.00000
 1509.00   -1.20948   0.00000
 1510.00   -1.20931   0.00000
 1511.00   -1.20914   0.00000
 1512.00   -1.20896   0.00000
 1513.00   -1.20879   0.00000
 1514.00   -1.20861   0.00000
 1515.00   -1.20842   0.00000
 1516.00   -1.20824   0.00000
 1517.00   -1.20805   0.00000
 1518.00   -1.20785   0.00000
 1519.00   -1.20766   0.00000
 1520.00   -1.20746   0.00000
 1521.00   -1.20725   0.00000
 1522.00   -1.20705   0.00000
 1523.00   -1.20684   0.00000
 1524.00   -1.20663   0.00000
 1525.00   -1.20641   0.00000
 1526.00   -1.20619   0.00000
 1527.00   -1.20597   0.00000
 1528.00   -1.20575   0.00000
 1529.00   -1.20552   0.00000
 1530.00   -1.20529   0.00000
 1531.00   -1.20506   0.00000
 1532.00   -1.20482   0.00000
 1533.00   -1.20458   0.00000
 1534.00   -1.20434   0.00000
 1535.00   -1.20409   0.00000
 1536.00   -1.20385   0.00000
 1537.00   -1.20360   0.00000
 1538.00   -1.20334   0.00000
 1539.00   -1.20309   0.00000
 1540.00   -1.20283   0.00000
 1541.00   -1.20257   0.00000
 1542.00   -1.20230   0.00000
 1543.00   -1.20204   0.00000
 1544.00   -1.20177   0.00000
 1545.00   -1.20149   0.00000
 1546.00   -1.20122   0.00000
 1547.00   -1.20094   0.00000
 1548.00   -1.20066   0.00000
 1549.00   -1.20038   0.00000
 1550.00   -1.20009   0.00000
 1551.00   -1.19980   0.00000
 1552.00   -1.19951   0.00000
 1553.00   -1.19922   0.00000
 1554.00   -1.19892   0.00000
 1555.00   -1.19863   0.00000
 1556.00   -1.19832   0.00000
 1557.00   -1.19802   0.00000
 1558.00   -1.19771   0.00000
 1559.00   -1.19741   0.00000
 1560.00   -1.19709   0.00000
 1561.00   -1.19678   0.00000
 1562.00   -1.19646   0.00000
 1563.00   -1.19615   0.00000
 1564.00   -1.19583   0.00000
 1565.00   -1.19550   0.00000
 1566.00   -1.19518   0.00000
 1567.00   -1.19485   0.00000
 1568.00   -1.19452   0.00000
 1569.00   -1.19419   0.00000
 1570.00   -1.19385   0.00000
 1571.00   -1.19351   0.00000
 1572.00   -1.19317   0.00000
 1573.00   -1.19283   0.00000
 1574.00   -1.19249   0.00000
 1575.00   -1.19214   0.00000
 1576.00   -1.19179   0.00000
 1577.00   -1.19144   0.00000
 1578.00   -1.19109   0.00000
 1579.00   -1.19073   0.00000
 1580.00   -1.19037   0.00000
 1581.00   -1.19001   0.00000
 1582.00   -1.18965   0.00000
 1583.00   -1.18929   0.00000
 1584.00   -1.18892   0.00000
 1585.00   -1.18855   0.00000
 1586.00   -1.18818   0.00000
 1587.00   -1.18781   0.00000
 1588.00   -1.18743   0.00000
 1589.00   -1.18705   0.00000
 1590.00   -1.18667   0.00000
 1591.00   -1.18629   0.00000
 1592.00   -1.18591   0.00000
 1593.00   -1.18552   0.00000
 1594.00   -1.18513   0.00000
 1595.00   -1.18474   0.00000
 1596.00   -1.18435   0.00000
 1597.00   -1.18396   0.00000
 1598.00   -1.18356   0.00000
 1599.00   -1.18317   0.00000
 1600.00   -1.18277   0.00000
 1601.00   -1.18236   0.00000
 1602.00   -1.18196   0.00000
 1603.00   -1.18155   0.00000
 1604.00   -1.18115   0.00000
 1605.00   -1.18074   0.00000
 1606.00   -1.18033   0.00000
 1607.00   -1.17991   0.00000
 1608.00   -1.17950   0.00000
 1609.00   -1.17908   0.00000
 1610.00   -1.17866   0.00000
 1611.00   -1.17824   0.00000
 1612.00   -1.17782   0.00000
 1613.00   -1.17739   0.00000
 1614.00   -1.17696   0.00000
 1615.00   -1.17654   0.00000
 1616.00   -1.17611   0.00000
 1617.00   -1.17567   0.00000
 1618.00   -1.17524   0.00000
 1619.00   -1.17480   0.00000
 1620.00   -1.17437   0.00000
 1621.00   -1.17393   0.00000
 1622.00   -1.17349   0.00000
 1623.00   -1.17304   0.00000
 1624.00   -1.17260   0.00000
 1625.00   -1.17215   0.00000
 1626.00   -1.17170   0.00000
 1627.00   -1.17125   0.00000
 1628.00   -1.17080   0.00000
 1629.00   -1.17035   0.00000
 1630.00   -1.16989   0.00000
 1631.00   -1.16944   0.00000
 1632.00   -1.16898   0.00000
 1633.00   -1.16852   0.00000
 1634.00   -1.16806   0.00000
 1635.00   -1.16759   0.00000
 1636.00   -1.16713   0.00000
 1637.00   -1.16666   0.00000
 1638.00   -1.16619   0.00000
 1639.00   -1.16572   0.00000
 1640.00   -1.16525   0.00000
 1641.00   -1.16478   0.00000
 1642.00   -1.16430   0.00000
 1643.00   -1.16383   0.00000
 1644.00   -1.16335   0.00000
 1645.00   -1.16287   0.00000
 1646.00   -1.16239   0.00000
 1647.00   -1.16191   0.00000
 1648.00   -1.16142   0.00000
 1649.00   -1.16094   0.00000
 1650.00   -1.16045   0.00000
 1651.00   -1.15996   0.00000
 1652.00   -1.15947   0.00000
 1653.00   -1.15898   0.00000
 1654.00   -1.15848   0.00000
 1655.00   -1.15799   0.00000
 1656.00   -1.15749   0.00000
 1657.00   -1.15699   0.00000
 1658.00   -1.15649   0.00000
 1659.00   -1.15599   0.00000
 1660.00   -1.15549   0.00000
 1661.00   -1.15499   0.00000
 1662.00   -1.15448   0.00000
 1663.00   -1.15397   0.00000
 1664.00   -1.15347   0.00000
 1665.00   -1.15296   0.00000
 1666.00   -1.15244   0.00000
 1667.00   -1.15193   0.00000
 1668.00   -1.15142   0.00000
 1669.00   -1.15090   0.00000
 1670.00   -1.15039   0.00000
 1671.00   -1.14987   0.00000
 1672.00   -1.14935   0.00000
 1673.00   -1.14883   0.00000
 1674.00   -1.14830   0.00000
 1675.00   -1.14778   0.00000
 1676.00   -1.14726   0.00000
 1677.00   -1.14673   0.00000
 1678.00   -1.14620   0.00000
 1679.00   -1.14567   0.00000
 1680.00   -1.14514   0.00000
 1681.00   -1.14461   0.00000
 1682.00   -1.14408   0.00000
 1683.00   -1.14354   0.00000
 1684.00   -1.14301   0.00000
 1685.00   -1.14247   0.00000
 1686.00   -1.14193   0.00000
 1687.00   -1.14139   0.00000
 1688.00   -1.14085   0.00000
 1689.00   -1.14031   0.00000
 1690.00   -1.13976   0.00000
 1691.00   -1.13922   0.00000
 1692.00   -1.13867   0.00000
 1693.00   -1.13812   0.00000
 1694.00   -1.13758   0.00000
 1695.00   -1.13703   0.00000
 1696.00   -1.13647   0.00000
 1697.00   -1.13592   0.00000
 1698.00   -1.13537   0.00000
 1699.00   -1.13481   0.00000
 1700.00   -1.13426   0.00000
 1701.00   -1.13370   0.00000
 1702.00   -1.13314   0.00000
 1703.00   -1.13258   0.00000
 1704.00   -1.13202   0.00000
 1705.00   -1.13146   0.00000
 1706.00   -1.13089   0.00000
 1707.00   -1.13033   0.00000
 1708.00   -1.12976   0.00000
 1709.00   -1.12920   0.00000
 1710.00   -1.12863   0.00000
 1711.00   -1.12806   0.00000
 1712.00   -1.12749   0.00000
 1713.00   -1.12692   0.00000
 1714.00   -1.12634   0.00000
 1715.00   -1.12577   0.00000
 1716.00   -1.12520   0.00000
 1717.00   -1.12462   0.00000
 1718.00   -1.12404   0.00000
 1719.00   -1.12346   0.00000
 1720.00   -1.12288   0.00000
 1721.00   -1.12230   0.00000
 1722.00   -1.12172   0.00000
 1723.00   -1.12114   0.00000
 1724.00   -1.12055   0.00000
 1725.00   -1.11997   0.00000
 1726.00   -1.11938   0.00000
 1727.00   -1.11880   0.00000
 1728.00   -1.11821   0.00000
 1729.00   -1.11762   0.00000
 1730.00   -1.11703   0.00000
 1731.00   -1.11643   0.00000
 1732.00   -1.11584   0.00000
 1733.00   -1.11525   0.00000
 1734.00   -1.11465   0.00000
 1735.00   -1.11406   0.00000
 1736.00   -1.11346   0.00000
 1737.00   -1.11286   0.00000
