   W          E2-(pi0_p)
 (MeV)       Re        Im
 1074.00   -0.01027   0.00000
 1075.00   -0.02360   0.00000
 1076.00   -0.03678   0.00000
 1077.00   -0.04983   0.00000
 1078.00   -0.06274   0.00000
 1079.00   -0.07552   0.00000
 1080.00   -0.08817   0.00000
 1081.00   -0.10069   0.00000
 1082.00   -0.11308   0.00000
 1083.00   -0.12535   0.00000
 1084.00   -0.13749   0.00000
 1085.00   -0.14952   0.00000
 1086.00   -0.16143   0.00000
 1087.00   -0.17323   0.00000
 1088.00   -0.18491   0.00000
 1089.00   -0.19648   0.00000
 1090.00   -0.20794   0.00000
 1091.00   -0.21929   0.00000
 1092.00   -0.23054   0.00000
 1093.00   -0.24168   0.00000
 1094.00   -0.25273   0.00000
 1095.00   -0.26367   0.00000
 1096.00   -0.27451   0.00000
 1097.00   -0.28525   0.00000
 1098.00   -0.29590   0.00000
 1099.00   -0.30645   0.00000
 1100.00   -0.31692   0.00000
 1101.00   -0.32728   0.00000
 1102.00   -0.33756   0.00000
 1103.00   -0.34776   0.00000
 1104.00   -0.35786   0.00000
 1105.00   -0.36788   0.00000
 1106.00   -0.37781   0.00000
 1107.00   -0.38766   0.00000
 1108.00   -0.39743   0.00000
 1109.00   -0.40711   0.00000
 1110.00   -0.41672   0.00000
 1111.00   -0.42625   0.00000
 1112.00   -0.43570   0.00000
 1113.00   -0.44507   0.00000
 1114.00   -0.45437   0.00000
 1115.00   -0.46359   0.00000
 1116.00   -0.47274   0.00000
 1117.00   -0.48182   0.00000
 1118.00   -0.49083   0.00000
 1119.00   -0.49976   0.00000
 1120.00   -0.50863   0.00000
 1121.00   -0.51743   0.00000
 1122.00   -0.52616   0.00000
 1123.00   -0.53482   0.00000
 1124.00   -0.54342   0.00000
 1125.00   -0.55195   0.00000
 1126.00   -0.56042   0.00000
 1127.00   -0.56882   0.00000
 1128.00   -0.57717   0.00000
 1129.00   -0.58545   0.00000
 1130.00   -0.59367   0.00000
 1131.00   -0.60182   0.00000
 1132.00   -0.60992   0.00000
 1133.00   -0.61796   0.00000
 1134.00   -0.62595   0.00000
 1135.00   -0.63387   0.00000
 1136.00   -0.64174   0.00000
 1137.00   -0.64955   0.00000
 1138.00   -0.65731   0.00000
 1139.00   -0.66501   0.00000
 1140.00   -0.67266   0.00000
 1141.00   -0.68025   0.00000
 1142.00   -0.68779   0.00000
 1143.00   -0.69528   0.00000
 1144.00   -0.70271   0.00000
 1145.00   -0.71010   0.00000
 1146.00   -0.71743   0.00000
 1147.00   -0.72472   0.00000
 1148.00   -0.73195   0.00000
 1149.00   -0.73914   0.00000
 1150.00   -0.74628   0.00000
 1151.00   -0.75337   0.00000
 1152.00   -0.76041   0.00000
 1153.00   -0.76741   0.00000
 1154.00   -0.77435   0.00000
 1155.00   -0.78126   0.00000
 1156.00   -0.78811   0.00000
 1157.00   -0.79493   0.00000
 1158.00   -0.80169   0.00000
 1159.00   -0.80842   0.00000
 1160.00   -0.81510   0.00000
 1161.00   -0.82173   0.00000
 1162.00   -0.82833   0.00000
 1163.00   -0.83488   0.00000
 1164.00   -0.84139   0.00000
 1165.00   -0.84786   0.00000
 1166.00   -0.85428   0.00000
 1167.00   -0.86067   0.00000
 1168.00   -0.86702   0.00000
 1169.00   -0.87332   0.00000
 1170.00   -0.87959   0.00000
 1171.00   -0.88581   0.00000
 1172.00   -0.89200   0.00000
 1173.00   -0.89815   0.00000
 1174.00   -0.90426   0.00000
 1175.00   -0.91033   0.00000
 1176.00   -0.91637   0.00000
 1177.00   -0.92237   0.00000
 1178.00   -0.92833   0.00000
 1179.00   -0.93426   0.00000
 1180.00   -0.94015   0.00000
 1181.00   -0.94600   0.00000
 1182.00   -0.95182   0.00000
 1183.00   -0.95760   0.00000
 1184.00   -0.96335   0.00000
 1185.00   -0.96906   0.00000
 1186.00   -0.97474   0.00000
 1187.00   -0.98038   0.00000
 1188.00   -0.98600   0.00000
 1189.00   -0.99157   0.00000
 1190.00   -0.99712   0.00000
 1191.00   -1.00263   0.00000
 1192.00   -1.00811   0.00000
 1193.00   -1.01356   0.00000
 1194.00   -1.01897   0.00000
 1195.00   -1.02435   0.00000
 1196.00   -1.02970   0.00000
 1197.00   -1.03502   0.00000
 1198.00   -1.04031   0.00000
 1199.00   -1.04557   0.00000
 1200.00   -1.05080   0.00000
 1201.00   -1.05600   0.00000
 1202.00   -1.06116   0.00000
 1203.00   -1.06630   0.00000
 1204.00   -1.07141   0.00000
 1205.00   -1.07649   0.00000
 1206.00   -1.08154   0.00000
 1207.00   -1.08656   0.00000
 1208.00   -1.09155   0.00000
 1209.00   -1.09651   0.00000
 1210.00   -1.10144   0.00000
 1211.00   -1.10635   0.00000
 1212.00   -1.11123   0.00000
 1213.00   -1.11608   0.00000
 1214.00   -1.12090   0.00000
 1215.00   -1.12570   0.00000
 1216.00   -1.13047   0.00000
 1217.00   -1.13521   0.00000
 1218.00   -1.13993   0.00000
 1219.00   -1.14462   0.00000
 1220.00   -1.14928   0.00000
 1221.00   -1.15392   0.00000
 1222.00   -1.15853   0.00000
 1223.00   -1.16311   0.00000
 1224.00   -1.16767   0.00000
 1225.00   -1.17221   0.00000
 1226.00   -1.17672   0.00000
 1227.00   -1.18120   0.00000
 1228.00   -1.18566   0.00000
 1229.00   -1.19010   0.00000
 1230.00   -1.19451   0.00000
 1231.00   -1.19889   0.00000
 1232.00   -1.20325   0.00000
 1233.00   -1.20759   0.00000
 1234.00   -1.21190   0.00000
 1235.00   -1.21619   0.00000
 1236.00   -1.22046   0.00000
 1237.00   -1.22470   0.00000
 1238.00   -1.22892   0.00000
 1239.00   -1.23312   0.00000
 1240.00   -1.23729   0.00000
 1241.00   -1.24145   0.00000
 1242.00   -1.24557   0.00000
 1243.00   -1.24968   0.00000
 1244.00   -1.25376   0.00000
 1245.00   -1.25782   0.00000
 1246.00   -1.26186   0.00000
 1247.00   -1.26588   0.00000
 1248.00   -1.26988   0.00000
 1249.00   -1.27385   0.00000
 1250.00   -1.27780   0.00000
 1251.00   -1.28173   0.00000
 1252.00   -1.28564   0.00000
 1253.00   -1.28953   0.00000
 1254.00   -1.29340   0.00000
 1255.00   -1.29725   0.00000
 1256.00   -1.30107   0.00000
 1257.00   -1.30488   0.00000
 1258.00   -1.30866   0.00000
 1259.00   -1.31243   0.00000
 1260.00   -1.31617   0.00000
 1261.00   -1.31990   0.00000
 1262.00   -1.32360   0.00000
 1263.00   -1.32728   0.00000
 1264.00   -1.33095   0.00000
 1265.00   -1.33459   0.00000
 1266.00   -1.33822   0.00000
 1267.00   -1.34183   0.00000
 1268.00   -1.34541   0.00000
 1269.00   -1.34898   0.00000
 1270.00   -1.35253   0.00000
 1271.00   -1.35606   0.00000
 1272.00   -1.35957   0.00000
 1273.00   -1.36306   0.00000
 1274.00   -1.36653   0.00000
 1275.00   -1.36999   0.00000
 1276.00   -1.37342   0.00000
 1277.00   -1.37684   0.00000
 1278.00   -1.38024   0.00000
 1279.00   -1.38362   0.00000
 1280.00   -1.38698   0.00000
 1281.00   -1.39033   0.00000
 1282.00   -1.39366   0.00000
 1283.00   -1.39697   0.00000
 1284.00   -1.40026   0.00000
 1285.00   -1.40353   0.00000
 1286.00   -1.40679   0.00000
 1287.00   -1.41003   0.00000
 1288.00   -1.41325   0.00000
 1289.00   -1.41646   0.00000
 1290.00   -1.41965   0.00000
 1291.00   -1.42282   0.00000
 1292.00   -1.42597   0.00000
 1293.00   -1.42911   0.00000
 1294.00   -1.43223   0.00000
 1295.00   -1.43533   0.00000
 1296.00   -1.43842   0.00000
 1297.00   -1.44149   0.00000
 1298.00   -1.44455   0.00000
 1299.00   -1.44759   0.00000
 1300.00   -1.45061   0.00000
 1301.00   -1.45361   0.00000
 1302.00   -1.45660   0.00000
 1303.00   -1.45958   0.00000
 1304.00   -1.46254   0.00000
 1305.00   -1.46548   0.00000
 1306.00   -1.46841   0.00000
 1307.00   -1.47132   0.00000
 1308.00   -1.47421   0.00000
 1309.00   -1.47709   0.00000
 1310.00   -1.47996   0.00000
 1311.00   -1.48281   0.00000
 1312.00   -1.48564   0.00000
 1313.00   -1.48846   0.00000
 1314.00   -1.49126   0.00000
 1315.00   -1.49405   0.00000
 1316.00   -1.49683   0.00000
 1317.00   -1.49959   0.00000
 1318.00   -1.50233   0.00000
 1319.00   -1.50506   0.00000
 1320.00   -1.50777   0.00000
 1321.00   -1.51047   0.00000
 1322.00   -1.51316   0.00000
 1323.00   -1.51583   0.00000
 1324.00   -1.51849   0.00000
 1325.00   -1.52113   0.00000
 1326.00   -1.52376   0.00000
 1327.00   -1.52637   0.00000
 1328.00   -1.52897   0.00000
 1329.00   -1.53156   0.00000
 1330.00   -1.53413   0.00000
 1331.00   -1.53669   0.00000
 1332.00   -1.53923   0.00000
 1333.00   -1.54176   0.00000
 1334.00   -1.54428   0.00000
 1335.00   -1.54678   0.00000
 1336.00   -1.54927   0.00000
 1337.00   -1.55175   0.00000
 1338.00   -1.55421   0.00000
 1339.00   -1.55666   0.00000
 1340.00   -1.55910   0.00000
 1341.00   -1.56152   0.00000
 1342.00   -1.56393   0.00000
 1343.00   -1.56632   0.00000
 1344.00   -1.56871   0.00000
 1345.00   -1.57108   0.00000
 1346.00   -1.57343   0.00000
 1347.00   -1.57578   0.00000
 1348.00   -1.57811   0.00000
 1349.00   -1.58043   0.00000
 1350.00   -1.58273   0.00000
 1351.00   -1.58503   0.00000
 1352.00   -1.58731   0.00000
 1353.00   -1.58958   0.00000
 1354.00   -1.59183   0.00000
 1355.00   -1.59407   0.00000
 1356.00   -1.59630   0.00000
 1357.00   -1.59852   0.00000
 1358.00   -1.60073   0.00000
 1359.00   -1.60292   0.00000
 1360.00   -1.60510   0.00000
 1361.00   -1.60727   0.00000
 1362.00   -1.60943   0.00000
 1363.00   -1.61158   0.00000
 1364.00   -1.61371   0.00000
 1365.00   -1.61583   0.00000
 1366.00   -1.61794   0.00000
 1367.00   -1.62004   0.00000
 1368.00   -1.62212   0.00000
 1369.00   -1.62420   0.00000
 1370.00   -1.62626   0.00000
 1371.00   -1.62831   0.00000
 1372.00   -1.63035   0.00000
 1373.00   -1.63238   0.00000
 1374.00   -1.63439   0.00000
 1375.00   -1.63640   0.00000
 1376.00   -1.63839   0.00000
 1377.00   -1.64037   0.00000
 1378.00   -1.64235   0.00000
 1379.00   -1.64431   0.00000
 1380.00   -1.64625   0.00000
 1381.00   -1.64819   0.00000
 1382.00   -1.65012   0.00000
 1383.00   -1.65203   0.00000
 1384.00   -1.65394   0.00000
 1385.00   -1.65583   0.00000
 1386.00   -1.65771   0.00000
 1387.00   -1.65958   0.00000
 1388.00   -1.66144   0.00000
 1389.00   -1.66329   0.00000
 1390.00   -1.66513   0.00000
 1391.00   -1.66696   0.00000
 1392.00   -1.66878   0.00000
 1393.00   -1.67059   0.00000
 1394.00   -1.67238   0.00000
 1395.00   -1.67417   0.00000
 1396.00   -1.67595   0.00000
 1397.00   -1.67771   0.00000
 1398.00   -1.67947   0.00000
 1399.00   -1.68121   0.00000
 1400.00   -1.68295   0.00000
 1401.00   -1.68467   0.00000
 1402.00   -1.68638   0.00000
 1403.00   -1.68809   0.00000
 1404.00   -1.68978   0.00000
 1405.00   -1.69146   0.00000
 1406.00   -1.69314   0.00000
 1407.00   -1.69480   0.00000
 1408.00   -1.69645   0.00000
 1409.00   -1.69810   0.00000
 1410.00   -1.69973   0.00000
 1411.00   -1.70135   0.00000
 1412.00   -1.70297   0.00000
 1413.00   -1.70457   0.00000
 1414.00   -1.70617   0.00000
 1415.00   -1.70775   0.00000
 1416.00   -1.70933   0.00000
 1417.00   -1.71089   0.00000
 1418.00   -1.71245   0.00000
 1419.00   -1.71399   0.00000
 1420.00   -1.71553   0.00000
 1421.00   -1.71706   0.00000
 1422.00   -1.71858   0.00000
 1423.00   -1.72009   0.00000
 1424.00   -1.72158   0.00000
 1425.00   -1.72307   0.00000
 1426.00   -1.72455   0.00000
 1427.00   -1.72603   0.00000
 1428.00   -1.72749   0.00000
 1429.00   -1.72894   0.00000
 1430.00   -1.73038   0.00000
 1431.00   -1.73182   0.00000
 1432.00   -1.73324   0.00000
 1433.00   -1.73466   0.00000
 1434.00   -1.73607   0.00000
 1435.00   -1.73747   0.00000
 1436.00   -1.73886   0.00000
 1437.00   -1.74024   0.00000
 1438.00   -1.74161   0.00000
 1439.00   -1.74297   0.00000
 1440.00   -1.74433   0.00000
 1441.00   -1.74567   0.00000
 1442.00   -1.74701   0.00000
 1443.00   -1.74834   0.00000
 1444.00   -1.74965   0.00000
 1445.00   -1.75097   0.00000
 1446.00   -1.75227   0.00000
 1447.00   -1.75356   0.00000
 1448.00   -1.75485   0.00000
 1449.00   -1.75612   0.00000
 1450.00   -1.75739   0.00000
 1451.00   -1.75865   0.00000
 1452.00   -1.75990   0.00000
 1453.00   -1.76114   0.00000
 1454.00   -1.76238   0.00000
 1455.00   -1.76360   0.00000
 1456.00   -1.76482   0.00000
 1457.00   -1.76603   0.00000
 1458.00   -1.76723   0.00000
 1459.00   -1.76842   0.00000
 1460.00   -1.76961   0.00000
 1461.00   -1.77079   0.00000
 1462.00   -1.77195   0.00000
 1463.00   -1.77311   0.00000
 1464.00   -1.77427   0.00000
 1465.00   -1.77541   0.00000
 1466.00   -1.77655   0.00000
 1467.00   -1.77768   0.00000
 1468.00   -1.77880   0.00000
 1469.00   -1.77991   0.00000
 1470.00   -1.78101   0.00000
 1471.00   -1.78211   0.00000
 1472.00   -1.78320   0.00000
 1473.00   -1.78428   0.00000
 1474.00   -1.78535   0.00000
 1475.00   -1.78642   0.00000
 1476.00   -1.78748   0.00000
 1477.00   -1.78853   0.00000
 1478.00   -1.78957   0.00000
 1479.00   -1.79061   0.00000
 1480.00   -1.79163   0.00000
 1481.00   -1.79265   0.00000
 1482.00   -1.79367   0.00000
 1483.00   -1.79467   0.00000
 1484.00   -1.79567   0.00000
 1485.00   -1.79666   0.00000
 1486.00   -1.79764   0.00000
 1487.00   -1.79861   0.00000
 1488.00   -1.79958   0.00000
 1489.00   -1.80054   0.00000
 1490.00   -1.80150   0.00000
 1491.00   -1.80244   0.00000
 1492.00   -1.80338   0.00000
 1493.00   -1.80431   0.00000
 1494.00   -1.80523   0.00000
 1495.00   -1.80615   0.00000
 1496.00   -1.80706   0.00000
 1497.00   -1.80796   0.00000
 1498.00   -1.80886   0.00000
 1499.00   -1.80975   0.00000
 1500.00   -1.81063   0.00000
 1501.00   -1.81150   0.00000
 1502.00   -1.81237   0.00000
 1503.00   -1.81323   0.00000
 1504.00   -1.81408   0.00000
 1505.00   -1.81493   0.00000
 1506.00   -1.81577   0.00000
 1507.00   -1.81660   0.00000
 1508.00   -1.81742   0.00000
 1509.00   -1.81824   0.00000
 1510.00   -1.81905   0.00000
 1511.00   -1.81986   0.00000
 1512.00   -1.82066   0.00000
 1513.00   -1.82145   0.00000
 1514.00   -1.82223   0.00000
 1515.00   -1.82301   0.00000
 1516.00   -1.82378   0.00000
 1517.00   -1.82455   0.00000
 1518.00   -1.82530   0.00000
 1519.00   -1.82606   0.00000
 1520.00   -1.82680   0.00000
 1521.00   -1.82754   0.00000
 1522.00   -1.82827   0.00000
 1523.00   -1.82899   0.00000
 1524.00   -1.82971   0.00000
 1525.00   -1.83042   0.00000
 1526.00   -1.83113   0.00000
 1527.00   -1.83183   0.00000
 1528.00   -1.83252   0.00000
 1529.00   -1.83321   0.00000
 1530.00   -1.83389   0.00000
 1531.00   -1.83456   0.00000
 1532.00   -1.83523   0.00000
 1533.00   -1.83589   0.00000
 1534.00   -1.83654   0.00000
 1535.00   -1.83719   0.00000
 1536.00   -1.83783   0.00000
 1537.00   -1.83847   0.00000
 1538.00   -1.83910   0.00000
 1539.00   -1.83972   0.00000
 1540.00   -1.84034   0.00000
 1541.00   -1.84095   0.00000
 1542.00   -1.84156   0.00000
 1543.00   -1.84216   0.00000
 1544.00   -1.84275   0.00000
 1545.00   -1.84333   0.00000
 1546.00   -1.84392   0.00000
 1547.00   -1.84449   0.00000
 1548.00   -1.84506   0.00000
 1549.00   -1.84562   0.00000
 1550.00   -1.84618   0.00000
 1551.00   -1.84673   0.00000
 1552.00   -1.84727   0.00000
 1553.00   -1.84781   0.00000
 1554.00   -1.84835   0.00000
 1555.00   -1.84887   0.00000
 1556.00   -1.84939   0.00000
 1557.00   -1.84991   0.00000
 1558.00   -1.85042   0.00000
 1559.00   -1.85092   0.00000
 1560.00   -1.85142   0.00000
 1561.00   -1.85192   0.00000
 1562.00   -1.85240   0.00000
 1563.00   -1.85288   0.00000
 1564.00   -1.85336   0.00000
 1565.00   -1.85383   0.00000
 1566.00   -1.85429   0.00000
 1567.00   -1.85475   0.00000
 1568.00   -1.85520   0.00000
 1569.00   -1.85565   0.00000
 1570.00   -1.85609   0.00000
 1571.00   -1.85653   0.00000
 1572.00   -1.85696   0.00000
 1573.00   -1.85738   0.00000
 1574.00   -1.85780   0.00000
 1575.00   -1.85822   0.00000
 1576.00   -1.85863   0.00000
 1577.00   -1.85903   0.00000
 1578.00   -1.85943   0.00000
 1579.00   -1.85982   0.00000
 1580.00   -1.86021   0.00000
 1581.00   -1.86059   0.00000
 1582.00   -1.86096   0.00000
 1583.00   -1.86134   0.00000
 1584.00   -1.86170   0.00000
 1585.00   -1.86206   0.00000
 1586.00   -1.86242   0.00000
 1587.00   -1.86277   0.00000
 1588.00   -1.86311   0.00000
 1589.00   -1.86345   0.00000
 1590.00   -1.86378   0.00000
 1591.00   -1.86411   0.00000
 1592.00   -1.86444   0.00000
 1593.00   -1.86475   0.00000
 1594.00   -1.86507   0.00000
 1595.00   -1.86538   0.00000
 1596.00   -1.86568   0.00000
 1597.00   -1.86598   0.00000
 1598.00   -1.86627   0.00000
 1599.00   -1.86656   0.00000
 1600.00   -1.86684   0.00000
 1601.00   -1.86712   0.00000
 1602.00   -1.86739   0.00000
 1603.00   -1.86766   0.00000
 1604.00   -1.86792   0.00000
 1605.00   -1.86818   0.00000
 1606.00   -1.86843   0.00000
 1607.00   -1.86868   0.00000
 1608.00   -1.86892   0.00000
 1609.00   -1.86916   0.00000
 1610.00   -1.86939   0.00000
 1611.00   -1.86962   0.00000
 1612.00   -1.86984   0.00000
 1613.00   -1.87006   0.00000
 1614.00   -1.87028   0.00000
 1615.00   -1.87049   0.00000
 1616.00   -1.87069   0.00000
 1617.00   -1.87089   0.00000
 1618.00   -1.87108   0.00000
 1619.00   -1.87127   0.00000
 1620.00   -1.87146   0.00000
 1621.00   -1.87164   0.00000
 1622.00   -1.87181   0.00000
 1623.00   -1.87199   0.00000
 1624.00   -1.87215   0.00000
 1625.00   -1.87231   0.00000
 1626.00   -1.87247   0.00000
 1627.00   -1.87262   0.00000
 1628.00   -1.87277   0.00000
 1629.00   -1.87291   0.00000
 1630.00   -1.87305   0.00000
 1631.00   -1.87319   0.00000
 1632.00   -1.87332   0.00000
 1633.00   -1.87344   0.00000
 1634.00   -1.87356   0.00000
 1635.00   -1.87368   0.00000
 1636.00   -1.87379   0.00000
 1637.00   -1.87389   0.00000
 1638.00   -1.87400   0.00000
 1639.00   -1.87410   0.00000
 1640.00   -1.87419   0.00000
 1641.00   -1.87428   0.00000
 1642.00   -1.87436   0.00000
 1643.00   -1.87444   0.00000
 1644.00   -1.87452   0.00000
 1645.00   -1.87459   0.00000
 1646.00   -1.87466   0.00000
 1647.00   -1.87472   0.00000
 1648.00   -1.87478   0.00000
 1649.00   -1.87483   0.00000
 1650.00   -1.87488   0.00000
 1651.00   -1.87493   0.00000
 1652.00   -1.87497   0.00000
 1653.00   -1.87501   0.00000
 1654.00   -1.87504   0.00000
 1655.00   -1.87507   0.00000
 1656.00   -1.87509   0.00000
 1657.00   -1.87511   0.00000
 1658.00   -1.87513   0.00000
 1659.00   -1.87514   0.00000
 1660.00   -1.87515   0.00000
 1661.00   -1.87515   0.00000
 1662.00   -1.87515   0.00000
 1663.00   -1.87515   0.00000
 1664.00   -1.87514   0.00000
 1665.00   -1.87512   0.00000
 1666.00   -1.87511   0.00000
 1667.00   -1.87509   0.00000
 1668.00   -1.87506   0.00000
 1669.00   -1.87503   0.00000
 1670.00   -1.87500   0.00000
 1671.00   -1.87496   0.00000
 1672.00   -1.87492   0.00000
 1673.00   -1.87487   0.00000
 1674.00   -1.87483   0.00000
 1675.00   -1.87477   0.00000
 1676.00   -1.87471   0.00000
 1677.00   -1.87465   0.00000
 1678.00   -1.87459   0.00000
 1679.00   -1.87452   0.00000
 1680.00   -1.87445   0.00000
 1681.00   -1.87437   0.00000
 1682.00   -1.87429   0.00000
 1683.00   -1.87420   0.00000
 1684.00   -1.87412   0.00000
 1685.00   -1.87402   0.00000
 1686.00   -1.87393   0.00000
 1687.00   -1.87383   0.00000
 1688.00   -1.87372   0.00000
 1689.00   -1.87362   0.00000
 1690.00   -1.87350   0.00000
 1691.00   -1.87339   0.00000
 1692.00   -1.87327   0.00000
 1693.00   -1.87315   0.00000
 1694.00   -1.87302   0.00000
 1695.00   -1.87289   0.00000
 1696.00   -1.87276   0.00000
 1697.00   -1.87262   0.00000
 1698.00   -1.87248   0.00000
 1699.00   -1.87233   0.00000
 1700.00   -1.87218   0.00000
 1701.00   -1.87203   0.00000
 1702.00   -1.87188   0.00000
 1703.00   -1.87172   0.00000
 1704.00   -1.87155   0.00000
 1705.00   -1.87139   0.00000
 1706.00   -1.87122   0.00000
 1707.00   -1.87104   0.00000
 1708.00   -1.87086   0.00000
 1709.00   -1.87068   0.00000
 1710.00   -1.87050   0.00000
 1711.00   -1.87031   0.00000
 1712.00   -1.87012   0.00000
 1713.00   -1.86992   0.00000
 1714.00   -1.86972   0.00000
 1715.00   -1.86952   0.00000
 1716.00   -1.86931   0.00000
 1717.00   -1.86911   0.00000
 1718.00   -1.86889   0.00000
 1719.00   -1.86868   0.00000
 1720.00   -1.86846   0.00000
 1721.00   -1.86823   0.00000
 1722.00   -1.86801   0.00000
 1723.00   -1.86778   0.00000
 1724.00   -1.86754   0.00000
 1725.00   -1.86731   0.00000
 1726.00   -1.86707   0.00000
 1727.00   -1.86682   0.00000
 1728.00   -1.86658   0.00000
 1729.00   -1.86632   0.00000
 1730.00   -1.86607   0.00000
 1731.00   -1.86581   0.00000
 1732.00   -1.86555   0.00000
 1733.00   -1.86529   0.00000
 1734.00   -1.86502   0.00000
 1735.00   -1.86475   0.00000
 1736.00   -1.86448   0.00000
 1737.00   -1.86420   0.00000
