   W          M2+(pi0_p)
 (MeV)       Re        Im
 1074.00   -0.00064   0.00000
 1075.00   -0.00147   0.00000
 1076.00   -0.00230   0.00000
 1077.00   -0.00312   0.00000
 1078.00   -0.00394   0.00000
 1079.00   -0.00476   0.00000
 1080.00   -0.00557   0.00000
 1081.00   -0.00638   0.00000
 1082.00   -0.00718   0.00000
 1083.00   -0.00798   0.00000
 1084.00   -0.00878   0.00000
 1085.00   -0.00957   0.00000
 1086.00   -0.01035   0.00000
 1087.00   -0.01113   0.00000
 1088.00   -0.01191   0.00000
 1089.00   -0.01268   0.00000
 1090.00   -0.01345   0.00000
 1091.00   -0.01421   0.00000
 1092.00   -0.01497   0.00000
 1093.00   -0.01572   0.00000
 1094.00   -0.01647   0.00000
 1095.00   -0.01721   0.00000
 1096.00   -0.01794  -0.00001
 1097.00   -0.01867  -0.00001
 1098.00   -0.01940  -0.00001
 1099.00   -0.02012  -0.00001
 1100.00   -0.02083  -0.00002
 1101.00   -0.02154  -0.00002
 1102.00   -0.02224  -0.00002
 1103.00   -0.02293  -0.00003
 1104.00   -0.02362  -0.00003
 1105.00   -0.02431  -0.00004
 1106.00   -0.02498  -0.00005
 1107.00   -0.02565  -0.00005
 1108.00   -0.02632  -0.00006
 1109.00   -0.02698  -0.00007
 1110.00   -0.02763  -0.00007
 1111.00   -0.02827  -0.00008
 1112.00   -0.02891  -0.00009
 1113.00   -0.02954  -0.00009
 1114.00   -0.03016  -0.00010
 1115.00   -0.03078  -0.00011
 1116.00   -0.03139  -0.00012
 1117.00   -0.03199  -0.00013
 1118.00   -0.03259  -0.00013
 1119.00   -0.03318  -0.00014
 1120.00   -0.03376  -0.00015
 1121.00   -0.03433  -0.00016
 1122.00   -0.03490  -0.00017
 1123.00   -0.03546  -0.00018
 1124.00   -0.03601  -0.00019
 1125.00   -0.03656  -0.00021
 1126.00   -0.03710  -0.00022
 1127.00   -0.03762  -0.00023
 1128.00   -0.03815  -0.00024
 1129.00   -0.03866  -0.00026
 1130.00   -0.03917  -0.00027
 1131.00   -0.03966  -0.00029
 1132.00   -0.04016  -0.00030
 1133.00   -0.04064  -0.00032
 1134.00   -0.04111  -0.00034
 1135.00   -0.04158  -0.00035
 1136.00   -0.04204  -0.00037
 1137.00   -0.04249  -0.00039
 1138.00   -0.04293  -0.00041
 1139.00   -0.04336  -0.00043
 1140.00   -0.04379  -0.00044
 1141.00   -0.04420  -0.00046
 1142.00   -0.04461  -0.00048
 1143.00   -0.04501  -0.00050
 1144.00   -0.04540  -0.00052
 1145.00   -0.04579  -0.00055
 1146.00   -0.04616  -0.00057
 1147.00   -0.04653  -0.00059
 1148.00   -0.04688  -0.00061
 1149.00   -0.04723  -0.00063
 1150.00   -0.04757  -0.00066
 1151.00   -0.04790  -0.00068
 1152.00   -0.04822  -0.00071
 1153.00   -0.04854  -0.00073
 1154.00   -0.04884  -0.00076
 1155.00   -0.04914  -0.00078
 1156.00   -0.04942  -0.00081
 1157.00   -0.04970  -0.00084
 1158.00   -0.04997  -0.00086
 1159.00   -0.05023  -0.00089
 1160.00   -0.05048  -0.00092
 1161.00   -0.05072  -0.00095
 1162.00   -0.05095  -0.00099
 1163.00   -0.05117  -0.00102
 1164.00   -0.05139  -0.00105
 1165.00   -0.05159  -0.00109
 1166.00   -0.05179  -0.00112
 1167.00   -0.05197  -0.00116
 1168.00   -0.05215  -0.00119
 1169.00   -0.05232  -0.00123
 1170.00   -0.05248  -0.00127
 1171.00   -0.05262  -0.00131
 1172.00   -0.05276  -0.00135
 1173.00   -0.05289  -0.00138
 1174.00   -0.05301  -0.00142
 1175.00   -0.05312  -0.00146
 1176.00   -0.05323  -0.00150
 1177.00   -0.05332  -0.00155
 1178.00   -0.05340  -0.00159
 1179.00   -0.05347  -0.00163
 1180.00   -0.05354  -0.00167
 1181.00   -0.05359  -0.00171
 1182.00   -0.05363  -0.00175
 1183.00   -0.05367  -0.00179
 1184.00   -0.05369  -0.00183
 1185.00   -0.05371  -0.00188
 1186.00   -0.05371  -0.00192
 1187.00   -0.05371  -0.00196
 1188.00   -0.05370  -0.00200
 1189.00   -0.05367  -0.00204
 1190.00   -0.05364  -0.00208
 1191.00   -0.05360  -0.00212
 1192.00   -0.05354  -0.00216
 1193.00   -0.05348  -0.00220
 1194.00   -0.05341  -0.00225
 1195.00   -0.05333  -0.00229
 1196.00   -0.05324  -0.00233
 1197.00   -0.05313  -0.00237
 1198.00   -0.05302  -0.00241
 1199.00   -0.05290  -0.00246
 1200.00   -0.05277  -0.00250
 1201.00   -0.05263  -0.00255
 1202.00   -0.05248  -0.00260
 1203.00   -0.05232  -0.00265
 1204.00   -0.05215  -0.00270
 1205.00   -0.05197  -0.00275
 1206.00   -0.05178  -0.00280
 1207.00   -0.05158  -0.00285
 1208.00   -0.05138  -0.00290
 1209.00   -0.05116  -0.00295
 1210.00   -0.05093  -0.00300
 1211.00   -0.05069  -0.00305
 1212.00   -0.05044  -0.00310
 1213.00   -0.05019  -0.00314
 1214.00   -0.04992  -0.00319
 1215.00   -0.04964  -0.00324
 1216.00   -0.04935  -0.00329
 1217.00   -0.04906  -0.00334
 1218.00   -0.04875  -0.00339
 1219.00   -0.04843  -0.00344
 1220.00   -0.04811  -0.00349
 1221.00   -0.04777  -0.00355
 1222.00   -0.04743  -0.00360
 1223.00   -0.04707  -0.00366
 1224.00   -0.04671  -0.00371
 1225.00   -0.04633  -0.00377
 1226.00   -0.04595  -0.00383
 1227.00   -0.04555  -0.00388
 1228.00   -0.04515  -0.00394
 1229.00   -0.04473  -0.00400
 1230.00   -0.04431  -0.00405
 1231.00   -0.04388  -0.00410
 1232.00   -0.04343  -0.00416
 1233.00   -0.04298  -0.00421
 1234.00   -0.04252  -0.00426
 1235.00   -0.04205  -0.00431
 1236.00   -0.04157  -0.00436
 1237.00   -0.04107  -0.00442
 1238.00   -0.04057  -0.00447
 1239.00   -0.04006  -0.00452
 1240.00   -0.03954  -0.00458
 1241.00   -0.03901  -0.00463
 1242.00   -0.03848  -0.00469
 1243.00   -0.03793  -0.00475
 1244.00   -0.03737  -0.00480
 1245.00   -0.03680  -0.00486
 1246.00   -0.03622  -0.00492
 1247.00   -0.03564  -0.00498
 1248.00   -0.03504  -0.00504
 1249.00   -0.03444  -0.00510
 1250.00   -0.03382  -0.00516
 1251.00   -0.03320  -0.00522
 1252.00   -0.03256  -0.00527
 1253.00   -0.03192  -0.00533
 1254.00   -0.03127  -0.00538
 1255.00   -0.03060  -0.00544
 1256.00   -0.02993  -0.00549
 1257.00   -0.02925  -0.00555
 1258.00   -0.02856  -0.00561
 1259.00   -0.02786  -0.00567
 1260.00   -0.02716  -0.00572
 1261.00   -0.02644  -0.00578
 1262.00   -0.02571  -0.00585
 1263.00   -0.02498  -0.00591
 1264.00   -0.02423  -0.00597
 1265.00   -0.02348  -0.00603
 1266.00   -0.02271  -0.00609
 1267.00   -0.02194  -0.00616
 1268.00   -0.02116  -0.00622
 1269.00   -0.02037  -0.00628
 1270.00   -0.01957  -0.00634
 1271.00   -0.01876  -0.00640
 1272.00   -0.01794  -0.00646
 1273.00   -0.01711  -0.00652
 1274.00   -0.01628  -0.00657
 1275.00   -0.01543  -0.00663
 1276.00   -0.01458  -0.00669
 1277.00   -0.01372  -0.00674
 1278.00   -0.01285  -0.00680
 1279.00   -0.01196  -0.00685
 1280.00   -0.01108  -0.00691
 1281.00   -0.01018  -0.00696
 1282.00   -0.00927  -0.00702
 1283.00   -0.00835  -0.00707
 1284.00   -0.00743  -0.00713
 1285.00   -0.00650  -0.00719
 1286.00   -0.00556  -0.00724
 1287.00   -0.00461  -0.00730
 1288.00   -0.00365  -0.00736
 1289.00   -0.00268  -0.00741
 1290.00   -0.00171  -0.00747
 1291.00   -0.00072  -0.00753
 1292.00    0.00027  -0.00759
 1293.00    0.00127  -0.00764
 1294.00    0.00228  -0.00770
 1295.00    0.00330  -0.00776
 1296.00    0.00432  -0.00782
 1297.00    0.00536  -0.00788
 1298.00    0.00640  -0.00793
 1299.00    0.00746  -0.00799
 1300.00    0.00852  -0.00805
 1301.00    0.00959  -0.00810
 1302.00    0.01068  -0.00816
 1303.00    0.01177  -0.00821
 1304.00    0.01287  -0.00826
 1305.00    0.01397  -0.00832
 1306.00    0.01509  -0.00837
 1307.00    0.01622  -0.00842
 1308.00    0.01735  -0.00848
 1309.00    0.01849  -0.00853
 1310.00    0.01963  -0.00858
 1311.00    0.02079  -0.00864
 1312.00    0.02195  -0.00869
 1313.00    0.02311  -0.00875
 1314.00    0.02429  -0.00880
 1315.00    0.02547  -0.00886
 1316.00    0.02666  -0.00891
 1317.00    0.02785  -0.00897
 1318.00    0.02906  -0.00902
 1319.00    0.03027  -0.00908
 1320.00    0.03149  -0.00913
 1321.00    0.03271  -0.00918
 1322.00    0.03395  -0.00923
 1323.00    0.03519  -0.00928
 1324.00    0.03644  -0.00933
 1325.00    0.03769  -0.00938
 1326.00    0.03896  -0.00943
 1327.00    0.04023  -0.00948
 1328.00    0.04152  -0.00953
 1329.00    0.04281  -0.00958
 1330.00    0.04411  -0.00963
 1331.00    0.04541  -0.00968
 1332.00    0.04673  -0.00974
 1333.00    0.04805  -0.00979
 1334.00    0.04939  -0.00984
 1335.00    0.05073  -0.00989
 1336.00    0.05207  -0.00994
 1337.00    0.05343  -0.01000
 1338.00    0.05479  -0.01005
 1339.00    0.05615  -0.01010
 1340.00    0.05752  -0.01015
 1341.00    0.05890  -0.01020
 1342.00    0.06029  -0.01026
 1343.00    0.06168  -0.01031
 1344.00    0.06307  -0.01036
 1345.00    0.06447  -0.01041
 1346.00    0.06588  -0.01046
 1347.00    0.06730  -0.01051
 1348.00    0.06872  -0.01055
 1349.00    0.07016  -0.01060
 1350.00    0.07160  -0.01064
 1351.00    0.07304  -0.01069
 1352.00    0.07450  -0.01073
 1353.00    0.07596  -0.01078
 1354.00    0.07743  -0.01082
 1355.00    0.07891  -0.01086
 1356.00    0.08039  -0.01090
 1357.00    0.08188  -0.01095
 1358.00    0.08338  -0.01099
 1359.00    0.08488  -0.01104
 1360.00    0.08640  -0.01108
 1361.00    0.08791  -0.01113
 1362.00    0.08944  -0.01118
 1363.00    0.09097  -0.01123
 1364.00    0.09250  -0.01127
 1365.00    0.09404  -0.01132
 1366.00    0.09559  -0.01137
 1367.00    0.09715  -0.01142
 1368.00    0.09871  -0.01147
 1369.00    0.10027  -0.01151
 1370.00    0.10184  -0.01156
 1371.00    0.10342  -0.01160
 1372.00    0.10500  -0.01164
 1373.00    0.10659  -0.01169
 1374.00    0.10819  -0.01172
 1375.00    0.10979  -0.01176
 1376.00    0.11140  -0.01180
 1377.00    0.11301  -0.01184
 1378.00    0.11464  -0.01188
 1379.00    0.11626  -0.01192
 1380.00    0.11790  -0.01196
 1381.00    0.11954  -0.01200
 1382.00    0.12119  -0.01204
 1383.00    0.12285  -0.01208
 1384.00    0.12451  -0.01212
 1385.00    0.12618  -0.01216
 1386.00    0.12785  -0.01221
 1387.00    0.12953  -0.01225
 1388.00    0.13121  -0.01229
 1389.00    0.13290  -0.01234
 1390.00    0.13459  -0.01238
 1391.00    0.13628  -0.01242
 1392.00    0.13798  -0.01246
 1393.00    0.13969  -0.01250
 1394.00    0.14140  -0.01254
 1395.00    0.14311  -0.01258
 1396.00    0.14483  -0.01262
 1397.00    0.14656  -0.01266
 1398.00    0.14829  -0.01270
 1399.00    0.15003  -0.01273
 1400.00    0.15177  -0.01277
 1401.00    0.15353  -0.01280
 1402.00    0.15529  -0.01284
 1403.00    0.15705  -0.01287
 1404.00    0.15883  -0.01290
 1405.00    0.16060  -0.01293
 1406.00    0.16239  -0.01296
 1407.00    0.16418  -0.01299
 1408.00    0.16597  -0.01303
 1409.00    0.16777  -0.01306
 1410.00    0.16957  -0.01309
 1411.00    0.17137  -0.01312
 1412.00    0.17318  -0.01316
 1413.00    0.17499  -0.01319
 1414.00    0.17681  -0.01323
 1415.00    0.17863  -0.01326
 1416.00    0.18045  -0.01329
 1417.00    0.18228  -0.01333
 1418.00    0.18412  -0.01336
 1419.00    0.18596  -0.01339
 1420.00    0.18780  -0.01342
 1421.00    0.18965  -0.01345
 1422.00    0.19150  -0.01348
 1423.00    0.19336  -0.01350
 1424.00    0.19523  -0.01353
 1425.00    0.19710  -0.01356
 1426.00    0.19897  -0.01358
 1427.00    0.20085  -0.01360
 1428.00    0.20274  -0.01363
 1429.00    0.20463  -0.01365
 1430.00    0.20652  -0.01368
 1431.00    0.20842  -0.01370
 1432.00    0.21033  -0.01373
 1433.00    0.21224  -0.01375
 1434.00    0.21415  -0.01378
 1435.00    0.21607  -0.01380
 1436.00    0.21799  -0.01383
 1437.00    0.21992  -0.01385
 1438.00    0.22185  -0.01388
 1439.00    0.22378  -0.01390
 1440.00    0.22571  -0.01392
 1441.00    0.22765  -0.01395
 1442.00    0.22959  -0.01397
 1443.00    0.23153  -0.01399
 1444.00    0.23348  -0.01401
 1445.00    0.23543  -0.01403
 1446.00    0.23739  -0.01404
 1447.00    0.23935  -0.01406
 1448.00    0.24131  -0.01408
 1449.00    0.24328  -0.01410
 1450.00    0.24526  -0.01412
 1451.00    0.24724  -0.01413
 1452.00    0.24923  -0.01415
 1453.00    0.25122  -0.01417
 1454.00    0.25321  -0.01419
 1455.00    0.25521  -0.01421
 1456.00    0.25722  -0.01422
 1457.00    0.25922  -0.01424
 1458.00    0.26124  -0.01425
 1459.00    0.26325  -0.01427
 1460.00    0.26527  -0.01428
 1461.00    0.26729  -0.01430
 1462.00    0.26931  -0.01431
 1463.00    0.27133  -0.01432
 1464.00    0.27336  -0.01433
 1465.00    0.27539  -0.01434
 1466.00    0.27743  -0.01435
 1467.00    0.27946  -0.01436
 1468.00    0.28150  -0.01437
 1469.00    0.28355  -0.01438
 1470.00    0.28559  -0.01439
 1471.00    0.28764  -0.01439
 1472.00    0.28970  -0.01440
 1473.00    0.29175  -0.01441
 1474.00    0.29381  -0.01441
 1475.00    0.29588  -0.01442
 1476.00    0.29794  -0.01442
 1477.00    0.30001  -0.01442
 1478.00    0.30209  -0.01443
 1479.00    0.30416  -0.01443
 1480.00    0.30624  -0.01443
 1481.00    0.30833  -0.01444
 1482.00    0.31041  -0.01444
 1483.00    0.31250  -0.01444
 1484.00    0.31460  -0.01444
 1485.00    0.31669  -0.01444
 1486.00    0.31879  -0.01445
 1487.00    0.32090  -0.01445
 1488.00    0.32300  -0.01445
 1489.00    0.32511  -0.01444
 1490.00    0.32723  -0.01444
 1491.00    0.32934  -0.01444
 1492.00    0.33146  -0.01444
 1493.00    0.33358  -0.01443
 1494.00    0.33570  -0.01443
 1495.00    0.33783  -0.01442
 1496.00    0.33996  -0.01441
 1497.00    0.34209  -0.01441
 1498.00    0.34422  -0.01440
 1499.00    0.34636  -0.01439
 1500.00    0.34849  -0.01437
 1501.00    0.35063  -0.01436
 1502.00    0.35277  -0.01435
 1503.00    0.35491  -0.01433
 1504.00    0.35705  -0.01432
 1505.00    0.35919  -0.01430
 1506.00    0.36134  -0.01428
 1507.00    0.36349  -0.01426
 1508.00    0.36564  -0.01424
 1509.00    0.36780  -0.01422
 1510.00    0.36996  -0.01420
 1511.00    0.37212  -0.01418
 1512.00    0.37428  -0.01416
 1513.00    0.37645  -0.01414
 1514.00    0.37862  -0.01412
 1515.00    0.38079  -0.01409
 1516.00    0.38296  -0.01407
 1517.00    0.38514  -0.01404
 1518.00    0.38732  -0.01402
 1519.00    0.38950  -0.01399
 1520.00    0.39168  -0.01396
 1521.00    0.39387  -0.01393
 1522.00    0.39605  -0.01390
 1523.00    0.39824  -0.01387
 1524.00    0.40043  -0.01384
 1525.00    0.40262  -0.01381
 1526.00    0.40481  -0.01377
 1527.00    0.40700  -0.01374
 1528.00    0.40920  -0.01370
 1529.00    0.41140  -0.01366
 1530.00    0.41360  -0.01362
 1531.00    0.41580  -0.01358
 1532.00    0.41800  -0.01354
 1533.00    0.42020  -0.01349
 1534.00    0.42241  -0.01345
 1535.00    0.42461  -0.01340
 1536.00    0.42682  -0.01336
 1537.00    0.42903  -0.01331
 1538.00    0.43124  -0.01326
 1539.00    0.43346  -0.01320
 1540.00    0.43567  -0.01315
 1541.00    0.43788  -0.01310
 1542.00    0.44010  -0.01304
 1543.00    0.44232  -0.01298
 1544.00    0.44454  -0.01293
 1545.00    0.44675  -0.01287
 1546.00    0.44898  -0.01280
 1547.00    0.45120  -0.01274
 1548.00    0.45342  -0.01268
 1549.00    0.45564  -0.01261
 1550.00    0.45787  -0.01254
 1551.00    0.46009  -0.01247
 1552.00    0.46231  -0.01240
 1553.00    0.46454  -0.01233
 1554.00    0.46677  -0.01226
 1555.00    0.46899  -0.01218
 1556.00    0.47122  -0.01210
 1557.00    0.47345  -0.01202
 1558.00    0.47568  -0.01194
 1559.00    0.47791  -0.01186
 1560.00    0.48014  -0.01178
 1561.00    0.48237  -0.01169
 1562.00    0.48460  -0.01160
 1563.00    0.48684  -0.01151
 1564.00    0.48907  -0.01142
 1565.00    0.49130  -0.01132
 1566.00    0.49353  -0.01123
 1567.00    0.49577  -0.01113
 1568.00    0.49800  -0.01103
 1569.00    0.50023  -0.01092
 1570.00    0.50246  -0.01082
 1571.00    0.50469  -0.01071
 1572.00    0.50692  -0.01060
 1573.00    0.50915  -0.01049
 1574.00    0.51138  -0.01038
 1575.00    0.51360  -0.01026
 1576.00    0.51583  -0.01014
 1577.00    0.51805  -0.01002
 1578.00    0.52028  -0.00990
 1579.00    0.52250  -0.00977
 1580.00    0.52473  -0.00964
 1581.00    0.52695  -0.00951
 1582.00    0.52917  -0.00938
 1583.00    0.53139  -0.00925
 1584.00    0.53361  -0.00911
 1585.00    0.53582  -0.00897
 1586.00    0.53804  -0.00882
 1587.00    0.54025  -0.00868
 1588.00    0.54246  -0.00853
 1589.00    0.54467  -0.00838
 1590.00    0.54688  -0.00823
 1591.00    0.54909  -0.00808
 1592.00    0.55129  -0.00792
 1593.00    0.55349  -0.00777
 1594.00    0.55569  -0.00761
 1595.00    0.55788  -0.00744
 1596.00    0.56007  -0.00728
 1597.00    0.56226  -0.00711
 1598.00    0.56445  -0.00694
 1599.00    0.56663  -0.00677
 1600.00    0.56881  -0.00660
 1601.00    0.57098  -0.00642
 1602.00    0.57315  -0.00624
 1603.00    0.57532  -0.00606
 1604.00    0.57748  -0.00588
 1605.00    0.57963  -0.00569
 1606.00    0.58179  -0.00551
 1607.00    0.58393  -0.00532
 1608.00    0.58608  -0.00513
 1609.00    0.58822  -0.00494
 1610.00    0.59035  -0.00474
 1611.00    0.59247  -0.00455
 1612.00    0.59460  -0.00435
 1613.00    0.59671  -0.00416
 1614.00    0.59882  -0.00396
 1615.00    0.60093  -0.00376
 1616.00    0.60303  -0.00356
 1617.00    0.60512  -0.00336
 1618.00    0.60720  -0.00317
 1619.00    0.60928  -0.00297
 1620.00    0.61136  -0.00277
 1621.00    0.61342  -0.00257
 1622.00    0.61548  -0.00237
 1623.00    0.61753  -0.00217
 1624.00    0.61958  -0.00198
 1625.00    0.62161  -0.00179
 1626.00    0.62364  -0.00159
 1627.00    0.62567  -0.00140
 1628.00    0.62768  -0.00122
 1629.00    0.62969  -0.00103
 1630.00    0.63169  -0.00085
 1631.00    0.63368  -0.00067
 1632.00    0.63567  -0.00049
 1633.00    0.63764  -0.00032
 1634.00    0.63961  -0.00016
 1635.00    0.64157   0.00001
 1636.00    0.64353   0.00016
 1637.00    0.64547   0.00032
 1638.00    0.64741   0.00046
 1639.00    0.64934   0.00060
 1640.00    0.65127   0.00074
 1641.00    0.65318   0.00086
 1642.00    0.65509   0.00098
 1643.00    0.65700   0.00109
 1644.00    0.65889   0.00120
 1645.00    0.66079   0.00129
 1646.00    0.66267   0.00138
 1647.00    0.66455   0.00146
 1648.00    0.66642   0.00153
 1649.00    0.66829   0.00159
 1650.00    0.67016   0.00164
 1651.00    0.67201   0.00168
 1652.00    0.67387   0.00172
 1653.00    0.67572   0.00174
 1654.00    0.67757   0.00175
 1655.00    0.67941   0.00175
 1656.00    0.68126   0.00174
 1657.00    0.68310   0.00172
 1658.00    0.68495   0.00168
 1659.00    0.68679   0.00164
 1660.00    0.68864   0.00158
 1661.00    0.69048   0.00150
 1662.00    0.69233   0.00142
 1663.00    0.69418   0.00132
 1664.00    0.69602   0.00122
 1665.00    0.69787   0.00111
 1666.00    0.69972   0.00099
 1667.00    0.70157   0.00086
 1668.00    0.70343   0.00073
 1669.00    0.70529   0.00059
 1670.00    0.70716   0.00044
 1671.00    0.70903   0.00028
 1672.00    0.71091   0.00012
 1673.00    0.71280  -0.00006
 1674.00    0.71469  -0.00025
 1675.00    0.71659  -0.00046
 1676.00    0.71849  -0.00067
 1677.00    0.72039  -0.00089
 1678.00    0.72230  -0.00113
 1679.00    0.72422  -0.00137
 1680.00    0.72614  -0.00162
 1681.00    0.72806  -0.00187
 1682.00    0.73000  -0.00212
 1683.00    0.73194  -0.00238
 1684.00    0.73390  -0.00264
 1685.00    0.73586  -0.00290
 1686.00    0.73784  -0.00317
 1687.00    0.73982  -0.00344
 1688.00    0.74181  -0.00371
 1689.00    0.74382  -0.00398
 1690.00    0.74582  -0.00426
 1691.00    0.74784  -0.00454
 1692.00    0.74986  -0.00482
 1693.00    0.75188  -0.00510
 1694.00    0.75391  -0.00538
 1695.00    0.75595  -0.00567
 1696.00    0.75800  -0.00595
 1697.00    0.76005  -0.00623
 1698.00    0.76211  -0.00652
 1699.00    0.76418  -0.00680
 1700.00    0.76625  -0.00709
 1701.00    0.76833  -0.00737
 1702.00    0.77042  -0.00765
 1703.00    0.77251  -0.00793
 1704.00    0.77461  -0.00821
 1705.00    0.77672  -0.00849
 1706.00    0.77883  -0.00877
 1707.00    0.78095  -0.00904
 1708.00    0.78307  -0.00931
 1709.00    0.78520  -0.00958
 1710.00    0.78733  -0.00984
 1711.00    0.78946  -0.01010
 1712.00    0.79160  -0.01036
 1713.00    0.79374  -0.01062
 1714.00    0.79589  -0.01087
 1715.00    0.79803  -0.01112
 1716.00    0.80018  -0.01137
 1717.00    0.80234  -0.01161
 1718.00    0.80450  -0.01185
 1719.00    0.80665  -0.01209
 1720.00    0.80882  -0.01232
 1721.00    0.81098  -0.01255
 1722.00    0.81315  -0.01278
 1723.00    0.81532  -0.01300
 1724.00    0.81749  -0.01322
 1725.00    0.81966  -0.01344
 1726.00    0.82184  -0.01365
 1727.00    0.82401  -0.01386
 1728.00    0.82619  -0.01407
 1729.00    0.82837  -0.01427
 1730.00    0.83055  -0.01447
 1731.00    0.83273  -0.01467
 1732.00    0.83491  -0.01486
 1733.00    0.83709  -0.01506
 1734.00    0.83928  -0.01524
 1735.00    0.84146  -0.01543
 1736.00    0.84364  -0.01561
 1737.00    0.84583  -0.01579
