   W         M1+(pi+_n)
 (MeV)      Re         Im
 1080.0   -2.58172   -0.00167
 1081.0   -2.80112   -0.00267
 1082.0   -3.01084   -0.00433
 1083.0   -3.21323   -0.00667
 1084.0   -3.40962   -0.00834
 1085.0   -3.60134   -0.01234
 1086.0   -3.78839   -0.01700
 1087.0   -3.96578   -0.02234
 1088.0   -4.12982   -0.02767
 1089.0   -4.28987   -0.03234
 1090.0   -4.44524   -0.03901
 1091.0   -4.59595   -0.04601
 1092.0   -4.74333   -0.05402
 1093.0   -4.88837   -0.06135
 1094.0   -5.03041   -0.07035
 1095.0   -5.17045   -0.08002
 1096.0   -5.30782   -0.08969
 1097.0   -5.44352   -0.10103
 1098.0   -5.57723   -0.11303
 1099.0   -5.70893   -0.12470
 1100.0   -5.83930   -0.13837
 1101.0   -5.96800   -0.15171
 1102.0   -6.09604   -0.16705
 1103.0   -6.22274   -0.18338
 1104.0   -6.34911   -0.19939
 1105.0   -6.47348   -0.21739
 1106.0   -6.59851   -0.23540
 1107.0   -6.72155   -0.25540
 1108.0   -6.84425   -0.27574
 1109.0   -6.96728   -0.29775
 1110.0   -7.08898   -0.32009
 1111.0   -7.21002   -0.34443
 1112.0   -7.33138   -0.36877
 1113.0   -7.45142   -0.39444
 1114.0   -7.57212   -0.42245
 1115.0   -7.69282   -0.45079
 1116.0   -7.81285   -0.48113
 1117.0   -7.93322   -0.51214
 1118.0   -8.05292   -0.54449
 1119.0   -8.17295   -0.57950
 1120.0   -8.29232   -0.61484
 1121.0   -8.41335   -0.65252
 1122.0   -8.53272   -0.69119
 1123.0   -8.65342   -0.73120
 1124.0   -8.77345   -0.77422
 1125.0   -8.89415   -0.81790
 1126.0   -9.01419   -0.86324
 1127.0   -9.13489   -0.91192
 1128.0   -9.25625   -0.96127
 1129.0   -9.37762   -1.01262
 1130.0   -9.49899   -1.06596
 1131.0   -9.62069   -1.12265
 1132.0   -9.74272   -1.18033
 1133.0   -9.86442   -1.24068
 1134.0   -9.98646   -1.30436
 1135.0  -10.10916   -1.36905
 1136.0  -10.23119   -1.43673
 1137.0  -10.35456   -1.50709
 1138.0  -10.47760   -1.58078
 1139.0  -10.60096   -1.65646
 1140.0  -10.72366   -1.73515
 1141.0  -10.84770   -1.81651
 1142.0  -10.97107   -1.90220
 1143.0  -11.09477   -1.98989
 1144.0  -11.21847   -2.08091
 1145.0  -11.34150   -2.17561
 1146.0  -11.46554   -2.27430
 1147.0  -11.58857   -2.37600
 1148.0  -11.71161   -2.48103
 1149.0  -11.83364   -2.59006
 1150.0  -11.95634   -2.70309
 1151.0  -12.07771   -2.82079
 1152.0  -12.19874   -2.94182
 1153.0  -12.31911   -3.06719
 1154.0  -12.43914   -3.19689
 1155.0  -12.55751   -3.33093
 1156.0  -12.67554   -3.47064
 1157.0  -12.79191   -3.61434
 1158.0  -12.90727   -3.76238
 1159.0  -13.02097   -3.91576
 1160.0  -13.13334   -4.07414
 1161.0  -13.24404   -4.23852
 1162.0  -13.35173   -4.40723
 1163.0  -13.45743   -4.58128
 1164.0  -13.56046   -4.76066
 1165.0  -13.66149   -4.94605
 1166.0  -13.75918   -5.13777
 1167.0  -13.85421   -5.33416
 1168.0  -13.94456   -5.53621
 1169.0  -14.03226   -5.74427
 1170.0  -14.11528   -5.95800
 1171.0  -14.19397   -6.17873
 1172.0  -14.26799   -6.40446
 1173.0  -14.33701   -6.63585
 1174.0  -14.40069   -6.87359
 1175.0  -14.45771   -7.11666
 1176.0  -14.50939   -7.36573
 1177.0  -14.55373   -7.62146
 1178.0  -14.59141   -7.88187
 1179.0  -14.62175   -8.14761
 1180.0  -14.64409   -8.41869
 1181.0  -14.65876   -8.69476
 1182.0  -14.66443   -8.97651
 1183.0  -14.66043   -9.26226
 1184.0  -14.64776   -9.55200
 1185.0  -14.62409   -9.84575
 1186.0  -14.59141  -10.14317
 1187.0  -14.54707  -10.44459
 1188.0  -14.49172  -10.74800
 1189.0  -14.42470  -11.05342
 1190.0  -14.34601  -11.36084
 1191.0  -14.25498  -11.67026
 1192.0  -14.15096  -11.97901
 1193.0  -14.03492  -12.28810
 1194.0  -13.90522  -12.59619
 1195.0  -13.76351  -12.90261
 1196.0  -13.60747  -13.20803
 1197.0  -13.43809  -13.50978
 1198.0  -13.25537  -13.80753
 1199.0  -13.05965  -14.10061
 1200.0  -12.85059  -14.38969
 1201.0  -12.62853  -14.67143
 1202.0  -12.39346  -14.94651
 1203.0  -12.14606  -15.21359
 1204.0  -11.88566  -15.47332
 1205.0  -11.61425  -15.72273
 1206.0  -11.33050  -15.96179
 1207.0  -11.03608  -16.19053
 1208.0  -10.73267  -16.40892
 1209.0  -10.41858  -16.61398
 1210.0  -10.09549  -16.80636
 1211.0   -9.76473  -16.98708
 1212.0   -9.42663  -17.15279
 1213.0   -9.08187  -17.30450
 1214.0   -8.73144  -17.44188
 1215.0   -8.37567  -17.56591
 1216.0   -8.01657  -17.67394
 1217.0   -7.65347  -17.76763
 1218.0   -7.29004  -17.84632
 1219.0   -6.92460  -17.90867
 1220.0   -6.55817  -17.95602
 1221.0   -6.19206  -17.99003
 1222.0   -5.82763  -18.00803
 1223.0   -5.46619  -18.01203
 1224.0   -5.10709  -18.00203
 1225.0   -4.75133  -17.97836
 1226.0   -4.40023  -17.94168
 1227.0   -4.05413  -17.89333
 1228.0   -3.71370  -17.83198
 1229.0   -3.37828  -17.75863
 1230.0   -3.05052  -17.67427
 1231.0   -2.72976  -17.57958
 1232.0   -2.41668  -17.47555
 1233.0   -2.11059  -17.36152
 1234.0   -1.81317  -17.23848
 1235.0   -1.52343  -17.10745
 1236.0   -1.24301  -16.96874
 1237.0   -0.97027  -16.82404
 1238.0   -0.70653  -16.67199
 1239.0   -0.45279  -16.51395
 1240.0   -0.20672  -16.35057
 1241.0    0.03034  -16.18352
 1242.0    0.25874  -16.01114
 1243.0    0.47813  -15.83509
 1244.0    0.68853  -15.65571
 1245.0    0.89058  -15.47366
 1246.0    1.08397  -15.28994
 1247.0    1.26902  -15.10322
 1248.0    1.44574  -14.91484
 1249.0    1.61445  -14.72545
 1250.0    1.77550  -14.53573
 1251.0    1.92954  -14.34468
 1252.0    2.07525  -14.15329
 1253.0    2.21362  -13.96290
 1254.0    2.34599  -13.77185
 1255.0    2.47036  -13.58080
 1256.0    2.58939  -13.39074
 1257.0    2.70075  -13.20269
 1258.0    2.80678  -13.01430
 1259.0    2.90615  -12.82725
 1260.0    3.00051  -12.64287
 1261.0    3.08953  -12.45848
 1262.0    3.17189  -12.27610
 1263.0    3.25024  -12.09538
 1264.0    3.32360  -11.91733
 1265.0    3.39128  -11.74028
 1266.0    3.45563  -11.56523
 1267.0    3.51532  -11.39318
 1268.0    3.57066  -11.22214
 1269.0    3.62235  -11.05409
 1270.0    3.67003  -10.88771
 1271.0    3.71404  -10.72333
 1272.0    3.75438  -10.56195
 1273.0    3.79139  -10.40224
 1274.0    3.82540  -10.24453
 1275.0    3.85608  -10.09015
 1276.0    3.88409   -9.93711
 1277.0    3.90909   -9.78640
 1278.0    3.93277   -9.63903
 1279.0    3.95244   -9.49265
 1280.0    3.96978   -9.34995
 1281.0    3.98511   -9.20824
 1282.0    3.99812   -9.06987
 1283.0    4.00979   -8.93250
 1284.0    4.01879   -8.79779
 1285.0    4.02546   -8.66576
 1286.0    4.03179   -8.53505
 1287.0    4.03513   -8.40768
 1288.0    4.03679   -8.28131
 1289.0    4.03813   -8.15795
 1290.0    4.03679   -8.03558
 1291.0    4.03513   -7.91621
 1292.0    4.03113   -7.79818
 1293.0    4.02613   -7.68281
 1294.0    4.02046   -7.56845
 1295.0    4.01279   -7.45675
 1296.0    4.00512   -7.34639
 1297.0    3.99645   -7.23836
 1298.0    3.98578   -7.13133
 1299.0    3.97544   -7.02730
 1300.0    3.96277   -6.92394
 1301.0    3.95044   -6.82324
 1302.0    3.93743   -6.72288
 1303.0    3.92276   -6.62552
 1304.0    3.90809   -6.52882
 1305.0    3.89209   -6.43447
 1306.0    3.87642   -6.34211
 1307.0    3.86008   -6.24975
 1308.0    3.84207   -6.16039
 1309.0    3.82474   -6.07103
 1310.0    3.80673   -5.98434
 1311.0    3.78839   -5.89898
 1312.0    3.76872   -5.81429
 1313.0    3.74938   -5.73160
 1314.0    3.72971   -5.64958
 1315.0    3.70970   -5.56956
 1316.0    3.68836   -5.49087
 1317.0    3.66769   -5.41285
 1318.0    3.64702   -5.33649
 1319.0    3.62568   -5.26180
 1320.0    3.60334   -5.18812
 1321.0    3.58167   -5.11443
 1322.0    3.55966   -5.04308
 1323.0    3.53766   -4.97272
 1324.0    3.51532   -4.90237
 1325.0    3.49198   -4.83435
 1326.0    3.46930   -4.76733
 1327.0    3.44630   -4.70131
 1328.0    3.42329   -4.63530
 1329.0    3.40028   -4.57128
 1330.0    3.37628   -4.50793
 1331.0    3.35294   -4.44591
 1332.0    3.32960   -4.38489
 1333.0    3.30592   -4.32454
 1334.0    3.28258   -4.26419
 1335.0    3.25891   -4.20551
 1336.0    3.23424   -4.14783
 1337.0    3.21056   -4.09114
 1338.0    3.18689   -4.03513
 1339.0    3.16288   -3.98011
 1340.0    3.13921   -3.92543
 1341.0    3.11520   -3.87108
 1342.0    3.09153   -3.81807
 1343.0    3.06652   -3.76605
 1344.0    3.04285   -3.71470
 1345.0    3.01884   -3.66402
 1346.0    2.99484   -3.61434
 1347.0    2.97116   -3.56500
 1348.0    2.94716   -3.51665
 1349.0    2.92215   -3.46864
 1350.0    2.89848   -3.42162
 1351.0    2.87447   -3.37494
 1352.0    2.85080   -3.32893
 1353.0    2.82712   -3.28358
 1354.0    2.80245   -3.23991
 1355.0    2.77844   -3.19589
 1356.0    2.75510   -3.15255
 1357.0    2.73143   -3.10954
 1358.0    2.70776   -3.06719
 1359.0    2.68308   -3.02551
 1360.0    2.65974   -2.98417
 1361.0    2.63607   -2.94449
 1362.0    2.61273   -2.90415
 1363.0    2.58939   -2.86447
 1364.0    2.56505   -2.82546
 1365.0    2.54171   -2.78678
 1366.0    2.51837   -2.74944
 1367.0    2.49536   -2.71176
 1368.0    2.47136   -2.67475
 1369.0    2.44802   -2.63907
 1370.0    2.42501   -2.60273
 1371.0    2.40234   -2.56672
 1372.0    2.37933   -2.53237
 1373.0    2.35532   -2.49736
 1374.0    2.33265   -2.46302
 1375.0    2.30998   -2.43001
 1376.0    2.28731   -2.39634
 1377.0    2.26363   -2.36399
 1378.0    2.24096   -2.33098
 1379.0    2.21862   -2.29864
 1380.0    2.19495   -2.26763
 1381.0    2.17261   -2.23596
 1382.0    2.15027   -2.20562
 1383.0    2.12793   -2.17561
 1384.0    2.10492   -2.14493
 1385.0    2.08258   -2.11592
 1386.0    2.06058   -2.08592
 1387.0    2.03757   -2.05758
 1388.0    2.01556   -2.02823
 1389.0    1.99356   -2.00056
 1390.0    1.97155   -1.97288
 1391.0    1.94888   -1.94488
 1392.0    1.92721   -1.91787
 1393.0    1.90520   -1.89153
 1394.0    1.88253   -1.86419
 1395.0    1.86119   -1.83851
 1396.0    1.83851   -1.81284
 1397.0    1.81684   -1.78750
 1398.0    1.79550   -1.76183
 1399.0    1.77416   -1.73715
 1400.0    1.75182   -1.71281
 1401.0    1.73048   -1.68847
 1402.0    1.70914   -1.66480
 1403.0    1.68714   -1.64146
 1404.0    1.66580   -1.61812
 1405.0    1.64479   -1.59411
 1406.0    1.62279   -1.57144
 1407.0    1.60178   -1.54910
 1408.0    1.58078   -1.52709
 1409.0    1.55910   -1.50509
 1410.0    1.53810   -1.48341
 1411.0    1.51642   -1.46208
 1412.0    1.49575   -1.44107
 1413.0    1.47475   -1.42040
 1414.0    1.45341   -1.39972
 1415.0    1.43273   -1.37939
 1416.0    1.41206   -1.35938
 1417.0    1.39072   -1.33937
 1418.0    1.37005   -1.31970
 1419.0    1.34971   -1.30136
 1420.0    1.32837   -1.28236
 1421.0    1.30803   -1.26335
 1422.0    1.28703   -1.24468
 1423.0    1.26669   -1.22634
 1424.0    1.24668   -1.20800
 1425.0    1.22534   -1.19100
 1426.0    1.20534   -1.17333
 1427.0    1.18533   -1.15566
 1428.0    1.16433   -1.13832
 1429.0    1.14432   -1.12231
 1430.0    1.12365   -1.10531
 1431.0    1.10364   -1.08864
 1432.0    1.08397   -1.07230
 1433.0    1.06330   -1.05696
 1434.0    1.04363   -1.04096
 1435.0    1.02395   -1.02495
 1436.0    1.00328   -1.01028
 1437.0    0.98394   -0.99494
 1438.0    0.96327   -0.98061
 1439.0    0.94393   -0.96560
 1440.0    0.92459   -0.95093
 1441.0    0.90425   -0.93726
 1442.0    0.88491   -0.92259
 1443.0    0.86591   -0.90959
 1444.0    0.84557   -0.89525
 1445.0    0.82656   -0.88258
 1446.0    0.80756   -0.86891
 1447.0    0.78755   -0.85624
 1448.0    0.76855   -0.84290
 1449.0    0.74954   -0.83090
 1450.0    0.72987   -0.81790
 1451.0    0.71087   -0.80623
 1452.0    0.69219   -0.79356
 1453.0    0.67252   -0.78222
 1454.0    0.65418   -0.77088
 1455.0    0.63551   -0.75888
 1456.0    0.61584   -0.74788
 1457.0    0.59750   -0.73621
 1458.0    0.57916   -0.72554
 1459.0    0.55982   -0.71520
 1460.0    0.54148   -0.70420
 1461.0    0.52248   -0.69419
 1462.0    0.50447   -0.68419
 1463.0    0.48614   -0.67352
 1464.0    0.46813   -0.66419
 1465.0    0.44946   -0.65485
 1466.0    0.43145   -0.64451
 1467.0    0.41378   -0.63551
 1468.0    0.39611   -0.62651
 1469.0    0.37744   -0.61784
 1470.0    0.35977   -0.60850
 1471.0    0.34210   -0.59983
 1472.0    0.32376   -0.59183
 1473.0    0.30642   -0.58383
 1474.0    0.28908   -0.57483
 1475.0    0.27208   -0.56716
 1476.0    0.25374   -0.55949
 1477.0    0.23673   -0.55215
 1478.0    0.21973   -0.54482
 1479.0    0.20306   -0.53648
 1480.0    0.18505   -0.52948
 1481.0    0.16838   -0.52281
 1482.0    0.15171   -0.51614
 1483.0    0.13504   -0.50948
 1484.0    0.11770   -0.50314
 1485.0    0.10136   -0.49681
 1486.0    0.08502   -0.48947
 1487.0    0.06869   -0.48380
 1488.0    0.05268   -0.47780
 1489.0    0.03668   -0.47213
 1490.0    0.01967   -0.46646
 1491.0    0.00367   -0.46113
 1492.0   -0.01200   -0.45579
 1493.0   -0.02767   -0.45079
 1494.0   -0.04335   -0.44579
 1495.0   -0.05868   -0.43979
 1496.0   -0.07502   -0.43512
 1497.0   -0.09036   -0.43045
 1498.0   -0.10536   -0.42579
 1499.0   -0.12070   -0.42145
 1500.0   -0.13570   -0.41712
 1501.0   -0.15038   -0.41312
 1502.0   -0.16505   -0.40911
 1503.0   -0.17972   -0.40545
 1504.0   -0.19439   -0.40145
 1505.0   -0.20873   -0.39811
 1506.0   -0.22306   -0.39444
 1507.0   -0.23740   -0.39111
 1508.0   -0.25140   -0.38778
 1509.0   -0.26541   -0.38377
 1510.0   -0.27941   -0.38077
 1511.0   -0.29308   -0.37777
 1512.0   -0.30675   -0.37510
 1513.0   -0.32009   -0.37244
 1514.0   -0.33376   -0.36977
 1515.0   -0.34710   -0.36710
 1516.0   -0.36010   -0.36477
 1517.0   -0.37310   -0.36277
 1518.0   -0.38611   -0.36043
 1519.0   -0.39878   -0.35843
 1520.0   -0.41145   -0.35643
 1521.0   -0.42412   -0.35477
 1522.0   -0.43646   -0.35310
 1523.0   -0.44879   -0.35143
 1524.0   -0.46013   -0.34976
 1525.0   -0.47213   -0.34743
 1526.0   -0.48414   -0.34610
 1527.0   -0.49480   -0.34476
 1528.0   -0.50647   -0.34376
 1529.0   -0.51814   -0.34276
 1530.0   -0.52948   -0.34176
 1531.0   -0.53982   -0.34076
 1532.0   -0.55082   -0.34010
 1533.0   -0.56182   -0.33843
 1534.0   -0.57183   -0.33776
 1535.0   -0.58250   -0.33743
 1536.0   -0.59317   -0.33709
 1537.0   -0.60350   -0.33676
 1538.0   -0.61284   -0.33643
 1539.0   -0.62284   -0.33509
 1540.0   -0.63318   -0.33509
 1541.0   -0.64185   -0.33509
 1542.0   -0.65152   -0.33509
 1543.0   -0.66118   -0.33543
 1544.0   -0.66985   -0.33443
 1545.0   -0.67919   -0.33476
 1546.0   -0.68819   -0.33509
 1547.0   -0.69653   -0.33543
 1548.0   -0.70520   -0.33509
 1549.0   -0.71320   -0.33576
 1550.0   -0.72187   -0.33643
 1551.0   -0.73020   -0.33609
 1552.0   -0.73754   -0.33676
 1553.0   -0.74588   -0.33743
 1554.0   -0.75288   -0.33743
 1555.0   -0.76055   -0.33843
 1556.0   -0.76755   -0.33843
 1557.0   -0.77522   -0.33943
 1558.0   -0.78155   -0.33976
 1559.0   -0.78889   -0.34076
 1560.0   -0.79522   -0.34110
 1561.0   -0.80222   -0.34243
 1562.0   -0.80823   -0.34276
 1563.0   -0.81389   -0.34410
 1564.0   -0.81956   -0.34443
 1565.0   -0.82490   -0.34610
 1566.0   -0.83023   -0.34676
 1567.0   -0.83657   -0.34810
 1568.0   -0.84157   -0.34876
 1569.0   -0.84624   -0.34943
 1570.0   -0.85224   -0.35143
 1571.0   -0.85691   -0.35210
 1572.0   -0.86224   -0.35277
 1573.0   -0.86658   -0.35377
 1574.0   -0.87191   -0.35577
 1575.0   -0.87691   -0.35643
 1576.0   -0.88058   -0.35743
 1577.0   -0.88458   -0.35843
 1578.0   -0.88825   -0.35943
 1579.0   -0.89158   -0.36077
 1580.0   -0.89492   -0.36177
 1581.0   -0.89925   -0.36277
 1582.0   -0.90225   -0.36410
 1583.0   -0.90525   -0.36544
 1584.0   -0.90892   -0.36644
 1585.0   -0.91159   -0.36777
 1586.0   -0.91426   -0.36910
 1587.0   -0.91659   -0.37044
 1588.0   -0.91892   -0.37177
 1589.0   -0.92192   -0.37210
 1590.0   -0.92392   -0.37344
 1591.0   -0.92559   -0.37477
 1592.0   -0.92759   -0.37611
 1593.0   -0.92893   -0.37677
 1594.0   -0.93059   -0.37811
 1595.0   -0.93193   -0.37977
 1596.0   -0.93293   -0.38011
 1597.0   -0.93426   -0.38177
 1598.0   -0.93593   -0.38211
 1599.0   -0.93693   -0.38377
 1600.0   -0.93760   -0.38411
 1601.0   -0.93826   -0.38477
 1602.0   -0.93960   -0.38644
 1603.0   -0.93993   -0.38711
 1604.0   -0.94026   -0.38744
 1605.0   -0.94126   -0.38911
 1606.0   -0.94126   -0.38978
 1607.0   -0.94093   -0.39044
 1608.0   -0.94060   -0.39111
 1609.0   -0.94126   -0.39178
 1610.0   -0.94093   -0.39244
 1611.0   -0.94026   -0.39311
 1612.0   -0.93926   -0.39378
 1613.0   -0.93960   -0.39444
 1614.0   -0.93860   -0.39511
 1615.0   -0.93760   -0.39578
 1616.0   -0.93726   -0.39644
 1617.0   -0.93593   -0.39711
 1618.0   -0.93459   -0.39678
 1619.0   -0.93326   -0.39744
 1620.0   -0.93159   -0.39811
 1621.0   -0.93093   -0.39778
 1622.0   -0.92893   -0.39844
 1623.0   -0.92793   -0.39911
 1624.0   -0.92593   -0.39878
 1625.0   -0.92493   -0.39944
 1626.0   -0.92359   -0.39911
 1627.0   -0.92126   -0.39978
 1628.0   -0.91992   -0.39944
 1629.0   -0.91726   -0.39911
 1630.0   -0.91592   -0.39978
 1631.0   -0.91292   -0.39944
 1632.0   -0.91125   -0.39911
 1633.0   -0.90825   -0.39878
 1634.0   -0.90625   -0.39844
 1635.0   -0.90425   -0.39811
 1636.0   -0.90225   -0.39878
 1637.0   -0.89892   -0.39844
 1638.0   -0.89658   -0.39778
 1639.0   -0.89425   -0.39744
 1640.0   -0.89158   -0.39711
 1641.0   -0.88825   -0.39678
 1642.0   -0.88558   -0.39511
 1643.0   -0.88291   -0.39478
 1644.0   -0.87991   -0.39444
 1645.0   -0.87591   -0.39378
 1646.0   -0.87324   -0.39344
 1647.0   -0.87091   -0.39178
 1648.0   -0.86791   -0.39144
 1649.0   -0.86457   -0.39078
 1650.0   -0.86157   -0.38944
 1651.0   -0.85924   -0.38878
 1652.0   -0.85591   -0.38811
 1653.0   -0.85224   -0.38677
 1654.0   -0.84890   -0.38611
 1655.0   -0.84524   -0.38444
 1656.0   -0.84157   -0.38377
 1657.0   -0.83890   -0.38244
 1658.0   -0.83590   -0.38177
 1659.0   -0.83223   -0.38011
 1660.0   -0.82923   -0.37844
 1661.0   -0.82623   -0.37777
 1662.0   -0.82223   -0.37611
 1663.0   -0.81923   -0.37444
 1664.0   -0.81589   -0.37377
 1665.0   -0.81189   -0.37210
 1666.0   -0.80856   -0.37010
 1667.0   -0.80523   -0.36844
 1668.0   -0.80089   -0.36677
 1669.0   -0.79756   -0.36610
 1670.0   -0.79289   -0.36410
 1671.0   -0.78955   -0.36243
 1672.0   -0.78689   -0.36043
 1673.0   -0.78322   -0.35877
 1674.0   -0.77955   -0.35677
 1675.0   -0.77688   -0.35510
 1676.0   -0.77322   -0.35310
 1677.0   -0.76955   -0.35210
 1678.0   -0.76555   -0.35043
 1679.0   -0.76288   -0.34843
 1680.0   -0.75888   -0.34643
 1681.0   -0.75488   -0.34443
 1682.0   -0.75088   -0.34243
 1683.0   -0.74788   -0.34043
 1684.0   -0.74387   -0.33843
 1685.0   -0.73954   -0.33643
 1686.0   -0.73654   -0.33443
 1687.0   -0.73254   -0.33243
 1688.0   -0.72920   -0.33043
 1689.0   -0.72587   -0.32843
 1690.0   -0.72287   -0.32609
 1691.0   -0.71853   -0.32409
 1692.0   -0.71520   -0.32209
 1693.0   -0.71187   -0.31976
 1694.0   -0.70720   -0.31776
 1695.0   -0.70386   -0.31575
 1696.0   -0.70053   -0.31342
 1697.0   -0.69719   -0.31109
 1698.0   -0.69453   -0.30909
 1699.0   -0.69119   -0.30675
 1700.0   -0.68753   -0.30475
 1701.0   -0.68486   -0.30242
 1702.0   -0.68152   -0.30008
 1703.0   -0.67786   -0.29775
 1704.0   -0.67419   -0.29542
 1705.0   -0.67152   -0.29308
 1706.0   -0.66785   -0.29108
 1707.0   -0.66419   -0.28875
 1708.0   -0.66152   -0.28641
 1709.0   -0.65785   -0.28375
 1710.0   -0.65485   -0.28141
 1711.0   -0.65118   -0.27908
 1712.0   -0.64851   -0.27674
 1713.0   -0.64451   -0.27441
 1714.0   -0.64185   -0.27208
 1715.0   -0.63818   -0.26941
 1716.0   -0.63518   -0.26707
 1717.0   -0.63251   -0.26474
 1718.0   -0.62951   -0.26207
 1719.0   -0.62751   -0.25974
 1720.0   -0.62484   -0.25707
 1721.0   -0.62184   -0.25474
 1722.0   -0.61884   -0.25307
 1723.0   -0.61517   -0.25074
 1724.0   -0.61217   -0.24807
 1725.0   -0.60917   -0.24574
 1726.0   -0.60617   -0.24307
 1727.0   -0.60350   -0.24040
 1728.0   -0.60050   -0.23873
 1729.0   -0.59750   -0.23640
 1730.0   -0.59450   -0.23373
 1731.0   -0.59150   -0.23106
 1732.0   -0.58950   -0.22940
 1733.0   -0.58650   -0.22673
 1734.0   -0.58450   -0.22406
 1735.0   -0.58150   -0.22240
 1736.0   -0.57950   -0.21973
 1737.0   -0.57649   -0.21706
 1738.0   -0.57349   -0.21539
 1739.0   -0.57149   -0.21273
 1740.0   -0.56849   -0.21006
 1741.0   -0.56649   -0.20839
 1742.0   -0.56349   -0.20572
 1743.0   -0.56149   -0.20306
 1744.0   -0.55849   -0.20139
