   W         E2+(pi0_p)
 (MeV)      Re         Im
 1074.0    0.000004  -0.000007
 1075.0    0.000017   0.000027
 1076.0    0.000031   0.000060
 1077.0    0.000044   0.000094
 1078.0    0.000058   0.000128
 1079.0    0.000072   0.000161
 1080.0    0.000085   0.000195
 1081.0    0.000099   0.000229
 1082.0    0.000113   0.000263
 1083.0    0.000126   0.000296
 1084.0    0.000140   0.000330
 1085.0    0.000154   0.000364
 1086.0    0.000168   0.000402
 1087.0    0.000182   0.000440
 1088.0    0.000197   0.000478
 1089.0    0.000211   0.000516
 1090.0    0.000226   0.000554
 1091.0    0.000241   0.000596
 1092.0    0.000255   0.000639
 1093.0    0.000270   0.000681
 1094.0    0.000285   0.000724
 1095.0    0.000300   0.000766
 1096.0    0.000316   0.000813
 1097.0    0.000331   0.000860
 1098.0    0.000347   0.000907
 1099.0    0.000362   0.000954
 1100.0    0.000378   0.001001
 1101.0    0.000393   0.001053
 1102.0    0.000409   0.001104
 1103.0    0.000425   0.001156
 1104.0    0.000441   0.001208
 1105.0    0.000456   0.001259
 1106.0    0.000472   0.001316
 1107.0    0.000488   0.001372
 1108.0    0.000504   0.001429
 1109.0    0.000520   0.001485
 1110.0    0.000536   0.001542
 1111.0    0.000552   0.001603
 1112.0    0.000568   0.001664
 1113.0    0.000584   0.001726
 1114.0    0.000600   0.001787
 1115.0    0.000616   0.001848
 1116.0    0.000632   0.001915
 1117.0    0.000648   0.001981
 1118.0    0.000663   0.002047
 1119.0    0.000679   0.002113
 1120.0    0.000695   0.002180
 1121.0    0.000711   0.002251
 1122.0    0.000726   0.002322
 1123.0    0.000742   0.002393
 1124.0    0.000757   0.002465
 1125.0    0.000773   0.002536
 1126.0    0.000788   0.002612
 1127.0    0.000803   0.002688
 1128.0    0.000818   0.002765
 1129.0    0.000833   0.002841
 1130.0    0.000848   0.002917
 1131.0    0.000862   0.002998
 1132.0    0.000876   0.003080
 1133.0    0.000890   0.003161
 1134.0    0.000905   0.003242
 1135.0    0.000919   0.003323
 1136.0    0.000933   0.003410
 1137.0    0.000946   0.003496
 1138.0    0.000959   0.003582
 1139.0    0.000973   0.003668
 1140.0    0.000986   0.003755
 1141.0    0.000999   0.003846
 1142.0    0.001011   0.003937
 1143.0    0.001024   0.004028
 1144.0    0.001036   0.004119
 1145.0    0.001048   0.004210
 1146.0    0.001060   0.004306
 1147.0    0.001071   0.004402
 1148.0    0.001082   0.004499
 1149.0    0.001093   0.004595
 1150.0    0.001104   0.004691
 1151.0    0.001114   0.004791
 1152.0    0.001124   0.004892
 1153.0    0.001133   0.004993
 1154.0    0.001143   0.005094
 1155.0    0.001153   0.005195
 1156.0    0.001161   0.005300
 1157.0    0.001169   0.005406
 1158.0    0.001177   0.005511
 1159.0    0.001185   0.005616
 1160.0    0.001193   0.005722
 1161.0    0.001200   0.005832
 1162.0    0.001206   0.005942
 1163.0    0.001212   0.006052
 1164.0    0.001218   0.006162
 1165.0    0.001225   0.006272
 1166.0    0.001229   0.006386
 1167.0    0.001233   0.006500
 1168.0    0.001238   0.006615
 1169.0    0.001242   0.006729
 1170.0    0.001246   0.006843
 1171.0    0.001248   0.006962
 1172.0    0.001250   0.007080
 1173.0    0.001253   0.007199
 1174.0    0.001255   0.007317
 1175.0    0.001257   0.007436
 1176.0    0.001257   0.007558
 1177.0    0.001256   0.007680
 1178.0    0.001256   0.007803
 1179.0    0.001256   0.007925
 1180.0    0.001256   0.008048
 1181.0    0.001253   0.008174
 1182.0    0.001250   0.008300
 1183.0    0.001247   0.008426
 1184.0    0.001245   0.008552
 1185.0    0.001242   0.008678
 1186.0    0.001237   0.008808
 1187.0    0.001231   0.008937
 1188.0    0.001226   0.009067
 1189.0    0.001220   0.009196
 1190.0    0.001215   0.009326
 1191.0    0.001207   0.009459
 1192.0    0.001198   0.009591
 1193.0    0.001190   0.009724
 1194.0    0.001182   0.009857
 1195.0    0.001174   0.009990
 1196.0    0.001163   0.010125
 1197.0    0.001151   0.010261
 1198.0    0.001140   0.010396
 1199.0    0.001129   0.010532
 1200.0    0.001118   0.010667
 1201.0    0.001103   0.010805
 1202.0    0.001089   0.010944
 1203.0    0.001075   0.011082
 1204.0    0.001061   0.011220
 1205.0    0.001046   0.011358
 1206.0    0.001029   0.011498
 1207.0    0.001011   0.011639
 1208.0    0.000994   0.011779
 1209.0    0.000976   0.011919
 1210.0    0.000959   0.012059
 1211.0    0.000938   0.012201
 1212.0    0.000917   0.012344
 1213.0    0.000896   0.012486
 1214.0    0.000875   0.012628
 1215.0    0.000854   0.012770
 1216.0    0.000830   0.012913
 1217.0    0.000806   0.013057
 1218.0    0.000782   0.013200
 1219.0    0.000757   0.013344
 1220.0    0.000733   0.013487
 1221.0    0.000705   0.013632
 1222.0    0.000678   0.013776
 1223.0    0.000650   0.013921
 1224.0    0.000622   0.014065
 1225.0    0.000594   0.014210
 1226.0    0.000563   0.014355
 1227.0    0.000531   0.014500
 1228.0    0.000500   0.014645
 1229.0    0.000469   0.014790
 1230.0    0.000437   0.014935
 1231.0    0.000402   0.015080
 1232.0    0.000367   0.015225
 1233.0    0.000332   0.015370
 1234.0    0.000298   0.015516
 1235.0    0.000263   0.015661
 1236.0    0.000224   0.015806
 1237.0    0.000185   0.015951
 1238.0    0.000147   0.016095
 1239.0    0.000108   0.016240
 1240.0    0.000069   0.016385
 1241.0    0.000027   0.016529
 1242.0   -0.000015   0.016673
 1243.0   -0.000057   0.016817
 1244.0   -0.000100   0.016962
 1245.0   -0.000142   0.017106
 1246.0   -0.000188   0.017248
 1247.0   -0.000234   0.017391
 1248.0   -0.000280   0.017534
 1249.0   -0.000326   0.017677
 1250.0   -0.000372   0.017820
 1251.0   -0.000422   0.017961
 1252.0   -0.000471   0.018102
 1253.0   -0.000521   0.018243
 1254.0   -0.000570   0.018384
 1255.0   -0.000620   0.018526
 1256.0   -0.000673   0.018664
 1257.0   -0.000726   0.018803
 1258.0   -0.000780   0.018942
 1259.0   -0.000833   0.019081
 1260.0   -0.000886   0.019220
 1261.0   -0.000943   0.019357
 1262.0   -0.000999   0.019494
 1263.0   -0.001056   0.019631
 1264.0   -0.001112   0.019768
 1265.0   -0.001169   0.019905
 1266.0   -0.001230   0.020037
 1267.0   -0.001290   0.020168
 1268.0   -0.001351   0.020299
 1269.0   -0.001412   0.020431
 1270.0   -0.001472   0.020562
 1271.0   -0.001536   0.020693
 1272.0   -0.001599   0.020823
 1273.0   -0.001662   0.020953
 1274.0   -0.001726   0.021083
 1275.0   -0.001789   0.021213
 1276.0   -0.001856   0.021338
 1277.0   -0.001923   0.021463
 1278.0   -0.001990   0.021587
 1279.0   -0.002057   0.021712
 1280.0   -0.002124   0.021836
 1281.0   -0.002194   0.021957
 1282.0   -0.002264   0.022077
 1283.0   -0.002334   0.022198
 1284.0   -0.002404   0.022319
 1285.0   -0.002474   0.022439
 1286.0   -0.002547   0.022554
 1287.0   -0.002620   0.022669
 1288.0   -0.002693   0.022784
 1289.0   -0.002766   0.022899
 1290.0   -0.002839   0.023014
 1291.0   -0.002915   0.023124
 1292.0   -0.002990   0.023233
 1293.0   -0.003066   0.023343
 1294.0   -0.003142   0.023452
 1295.0   -0.003218   0.023562
 1296.0   -0.003296   0.023665
 1297.0   -0.003374   0.023768
 1298.0   -0.003453   0.023872
 1299.0   -0.003531   0.023975
 1300.0   -0.003609   0.024078
 1301.0   -0.003690   0.024175
 1302.0   -0.003771   0.024272
 1303.0   -0.003851   0.024369
 1304.0   -0.003932   0.024465
 1305.0   -0.004012   0.024562
 1306.0   -0.004095   0.024652
 1307.0   -0.004178   0.024741
 1308.0   -0.004261   0.024831
 1309.0   -0.004344   0.024920
 1310.0   -0.004427   0.025010
 1311.0   -0.004511   0.025092
 1312.0   -0.004596   0.025174
 1313.0   -0.004681   0.025255
 1314.0   -0.004765   0.025337
 1315.0   -0.004850   0.025419
 1316.0   -0.004936   0.025493
 1317.0   -0.005023   0.025567
 1318.0   -0.005109   0.025640
 1319.0   -0.005195   0.025714
 1320.0   -0.005281   0.025788
 1321.0   -0.005369   0.025854
 1322.0   -0.005456   0.025920
 1323.0   -0.005544   0.025986
 1324.0   -0.005631   0.026052
 1325.0   -0.005719   0.026117
 1326.0   -0.005807   0.026174
 1327.0   -0.005896   0.026230
 1328.0   -0.005984   0.026287
 1329.0   -0.006073   0.026343
 1330.0   -0.006161   0.026399
 1331.0   -0.006250   0.026447
 1332.0   -0.006340   0.026494
 1333.0   -0.006429   0.026541
 1334.0   -0.006518   0.026588
 1335.0   -0.006607   0.026635
 1336.0   -0.006697   0.026673
 1337.0   -0.006786   0.026710
 1338.0   -0.006875   0.026748
 1339.0   -0.006965   0.026785
 1340.0   -0.007054   0.026823
 1341.0   -0.007144   0.026850
 1342.0   -0.007233   0.026878
 1343.0   -0.007322   0.026905
 1344.0   -0.007412   0.026933
 1345.0   -0.007501   0.026960
 1346.0   -0.007589   0.026979
 1347.0   -0.007678   0.026999
 1348.0   -0.007766   0.027018
 1349.0   -0.007854   0.027038
 1350.0   -0.007942   0.027057
 1351.0   -0.008031   0.027062
 1352.0   -0.008120   0.027066
 1353.0   -0.008208   0.027070
 1354.0   -0.008297   0.027075
 1355.0   -0.008385   0.027079
 1356.0   -0.008472   0.027074
 1357.0   -0.008559   0.027070
 1358.0   -0.008645   0.027065
 1359.0   -0.008732   0.027060
 1360.0   -0.008819   0.027056
 1361.0   -0.008904   0.027040
 1362.0   -0.008989   0.027024
 1363.0   -0.009074   0.027008
 1364.0   -0.009159   0.026992
 1365.0   -0.009244   0.026976
 1366.0   -0.009327   0.026948
 1367.0   -0.009410   0.026921
 1368.0   -0.009493   0.026893
 1369.0   -0.009576   0.026865
 1370.0   -0.009658   0.026838
 1371.0   -0.009739   0.026799
 1372.0   -0.009819   0.026759
 1373.0   -0.009899   0.026720
 1374.0   -0.009980   0.026681
 1375.0   -0.010060   0.026641
 1376.0   -0.010137   0.026590
 1377.0   -0.010214   0.026538
 1378.0   -0.010291   0.026487
 1379.0   -0.010369   0.026436
 1380.0   -0.010446   0.026384
 1381.0   -0.010520   0.026320
 1382.0   -0.010594   0.026256
 1383.0   -0.010667   0.026192
 1384.0   -0.010741   0.026128
 1385.0   -0.010815   0.026063
 1386.0   -0.010884   0.025989
 1387.0   -0.010954   0.025914
 1388.0   -0.011023   0.025839
 1389.0   -0.011092   0.025765
 1390.0   -0.011162   0.025690
 1391.0   -0.011227   0.025602
 1392.0   -0.011292   0.025513
 1393.0   -0.011357   0.025425
 1394.0   -0.011422   0.025337
 1395.0   -0.011487   0.025248
 1396.0   -0.011547   0.025148
 1397.0   -0.011607   0.025047
 1398.0   -0.011667   0.024946
 1399.0   -0.011728   0.024845
 1400.0   -0.011788   0.024745
 1401.0   -0.011842   0.024631
 1402.0   -0.011897   0.024518
 1403.0   -0.011951   0.024405
 1404.0   -0.012006   0.024291
 1405.0   -0.012060   0.024178
 1406.0   -0.012109   0.024052
 1407.0   -0.012157   0.023926
 1408.0   -0.012206   0.023800
 1409.0   -0.012254   0.023674
 1410.0   -0.012303   0.023549
 1411.0   -0.012345   0.023410
 1412.0   -0.012387   0.023272
 1413.0   -0.012429   0.023133
 1414.0   -0.012471   0.022994
 1415.0   -0.012513   0.022856
 1416.0   -0.012548   0.022705
 1417.0   -0.012583   0.022554
 1418.0   -0.012618   0.022403
 1419.0   -0.012652   0.022252
 1420.0   -0.012687   0.022101
 1421.0   -0.012715   0.021937
 1422.0   -0.012742   0.021774
 1423.0   -0.012769   0.021610
 1424.0   -0.012797   0.021446
 1425.0   -0.012824   0.021283
 1426.0   -0.012843   0.021107
 1427.0   -0.012863   0.020931
 1428.0   -0.012882   0.020755
 1429.0   -0.012901   0.020579
 1430.0   -0.012920   0.020403
 1431.0   -0.012931   0.020214
 1432.0   -0.012942   0.020024
 1433.0   -0.012953   0.019834
 1434.0   -0.012964   0.019645
 1435.0   -0.012975   0.019455
 1436.0   -0.012976   0.019257
 1437.0   -0.012977   0.019058
 1438.0   -0.012979   0.018859
 1439.0   -0.012980   0.018661
 1440.0   -0.012981   0.018462
 1441.0   -0.012973   0.018250
 1442.0   -0.012965   0.018038
 1443.0   -0.012956   0.017825
 1444.0   -0.012948   0.017613
 1445.0   -0.012940   0.017401
 1446.0   -0.012922   0.017177
 1447.0   -0.012904   0.016953
 1448.0   -0.012886   0.016730
 1449.0   -0.012867   0.016506
 1450.0   -0.012849   0.016282
 1451.0   -0.012820   0.016047
 1452.0   -0.012791   0.015812
 1453.0   -0.012762   0.015577
 1454.0   -0.012734   0.015341
 1455.0   -0.012705   0.015106
 1456.0   -0.012665   0.014860
 1457.0   -0.012625   0.014614
 1458.0   -0.012585   0.014368
 1459.0   -0.012545   0.014121
 1460.0   -0.012505   0.013875
 1461.0   -0.012453   0.013618
 1462.0   -0.012402   0.013361
 1463.0   -0.012350   0.013104
 1464.0   -0.012299   0.012847
 1465.0   -0.012247   0.012590
 1466.0   -0.012184   0.012323
 1467.0   -0.012120   0.012056
 1468.0   -0.012056   0.011788
 1469.0   -0.011993   0.011521
 1470.0   -0.011929   0.011254
 1471.0   -0.011853   0.010976
 1472.0   -0.011777   0.010699
 1473.0   -0.011701   0.010422
 1474.0   -0.011625   0.010144
 1475.0   -0.011549   0.009867
 1476.0   -0.011459   0.009580
 1477.0   -0.011370   0.009294
 1478.0   -0.011281   0.009007
 1479.0   -0.011192   0.008720
 1480.0   -0.011103   0.008433
 1481.0   -0.011001   0.008137
 1482.0   -0.010898   0.007842
 1483.0   -0.010796   0.007546
 1484.0   -0.010694   0.007250
 1485.0   -0.010591   0.006954
 1486.0   -0.010475   0.006650
 1487.0   -0.010359   0.006345
 1488.0   -0.010243   0.006041
 1489.0   -0.010126   0.005737
 1490.0   -0.010010   0.005432
 1491.0   -0.009880   0.005120
 1492.0   -0.009750   0.004808
 1493.0   -0.009619   0.004495
 1494.0   -0.009489   0.004183
 1495.0   -0.009359   0.003871
 1496.0   -0.009214   0.003551
 1497.0   -0.009069   0.003231
 1498.0   -0.008924   0.002912
 1499.0   -0.008779   0.002592
 1500.0   -0.008635   0.002272
 1501.0   -0.008475   0.001946
 1502.0   -0.008315   0.001620
 1503.0   -0.008156   0.001293
 1504.0   -0.007996   0.000967
 1505.0   -0.007836   0.000641
 1506.0   -0.007661   0.000308
 1507.0   -0.007487  -0.000024
 1508.0   -0.007312  -0.000357
 1509.0   -0.007137  -0.000690
 1510.0   -0.006963  -0.001023
 1511.0   -0.006773  -0.001361
 1512.0   -0.006582  -0.001699
 1513.0   -0.006392  -0.002037
 1514.0   -0.006202  -0.002375
 1515.0   -0.006012  -0.002713
 1516.0   -0.005806  -0.003055
 1517.0   -0.005601  -0.003398
 1518.0   -0.005395  -0.003741
 1519.0   -0.005189  -0.004083
 1520.0   -0.004984  -0.004426
 1521.0   -0.004762  -0.004772
 1522.0   -0.004541  -0.005119
 1523.0   -0.004319  -0.005466
 1524.0   -0.004098  -0.005812
 1525.0   -0.003876  -0.006159
 1526.0   -0.003639  -0.006509
 1527.0   -0.003402  -0.006858
 1528.0   -0.003164  -0.007208
 1529.0   -0.002927  -0.007558
 1530.0   -0.002690  -0.007907
 1531.0   -0.002436  -0.008259
 1532.0   -0.002183  -0.008611
 1533.0   -0.001930  -0.008963
 1534.0   -0.001676  -0.009315
 1535.0   -0.001423  -0.009667
 1536.0   -0.001154  -0.010021
 1537.0   -0.000885  -0.010374
 1538.0   -0.000616  -0.010728
 1539.0   -0.000346  -0.011081
 1540.0   -0.000077  -0.011434
 1541.0    0.000208  -0.011788
 1542.0    0.000493  -0.012142
 1543.0    0.000778  -0.012496
 1544.0    0.001063  -0.012850
 1545.0    0.001348  -0.013204
 1546.0    0.001649  -0.013558
 1547.0    0.001949  -0.013911
 1548.0    0.002250  -0.014265
 1549.0    0.002551  -0.014619
 1550.0    0.002852  -0.014972
 1551.0    0.003168  -0.015325
 1552.0    0.003484  -0.015677
 1553.0    0.003800  -0.016029
 1554.0    0.004116  -0.016382
 1555.0    0.004432  -0.016734
 1556.0    0.004763  -0.017084
 1557.0    0.005094  -0.017435
 1558.0    0.005425  -0.017785
 1559.0    0.005757  -0.018135
 1560.0    0.006088  -0.018485
 1561.0    0.006433  -0.018832
 1562.0    0.006779  -0.019179
 1563.0    0.007124  -0.019526
 1564.0    0.007470  -0.019873
 1565.0    0.007815  -0.020220
 1566.0    0.008175  -0.020563
 1567.0    0.008534  -0.020906
 1568.0    0.008894  -0.021249
 1569.0    0.009253  -0.021593
 1570.0    0.009613  -0.021936
 1571.0    0.009985  -0.022275
 1572.0    0.010357  -0.022613
 1573.0    0.010730  -0.022952
 1574.0    0.011102  -0.023290
 1575.0    0.011475  -0.023629
 1576.0    0.011859  -0.023962
 1577.0    0.012244  -0.024295
 1578.0    0.012628  -0.024628
 1579.0    0.013013  -0.024962
 1580.0    0.013397  -0.025295
 1581.0    0.013793  -0.025622
 1582.0    0.014188  -0.025950
 1583.0    0.014584  -0.026277
 1584.0    0.014979  -0.026605
 1585.0    0.015375  -0.026932
 1586.0    0.015780  -0.027253
 1587.0    0.016185  -0.027574
 1588.0    0.016590  -0.027896
 1589.0    0.016995  -0.028217
 1590.0    0.017400  -0.028538
 1591.0    0.017814  -0.028853
 1592.0    0.018227  -0.029168
 1593.0    0.018641  -0.029483
 1594.0    0.019054  -0.029798
 1595.0    0.019467  -0.030113
 1596.0    0.019888  -0.030422
 1597.0    0.020308  -0.030731
 1598.0    0.020728  -0.031040
 1599.0    0.021148  -0.031349
 1600.0    0.021569  -0.031659
 1601.0    0.021994  -0.031963
 1602.0    0.022420  -0.032267
 1603.0    0.022845  -0.032571
 1604.0    0.023271  -0.032875
 1605.0    0.023696  -0.033179
 1606.0    0.024126  -0.033479
 1607.0    0.024555  -0.033778
 1608.0    0.024985  -0.034078
 1609.0    0.025414  -0.034378
 1610.0    0.025844  -0.034677
 1611.0    0.026276  -0.034974
 1612.0    0.026708  -0.035271
 1613.0    0.027140  -0.035568
 1614.0    0.027572  -0.035865
 1615.0    0.028004  -0.036163
 1616.0    0.028438  -0.036459
 1617.0    0.028872  -0.036756
 1618.0    0.029306  -0.037052
 1619.0    0.029740  -0.037349
 1620.0    0.030174  -0.037645
 1621.0    0.030610  -0.037943
 1622.0    0.031045  -0.038242
 1623.0    0.031481  -0.038540
 1624.0    0.031916  -0.038838
 1625.0    0.032352  -0.039137
 1626.0    0.032789  -0.039439
 1627.0    0.033226  -0.039742
 1628.0    0.033664  -0.040045
 1629.0    0.034101  -0.040348
 1630.0    0.034539  -0.040650
 1631.0    0.034979  -0.040960
 1632.0    0.035419  -0.041270
 1633.0    0.035860  -0.041580
 1634.0    0.036300  -0.041890
 1635.0    0.036741  -0.042200
 1636.0    0.037186  -0.042519
 1637.0    0.037631  -0.042838
 1638.0    0.038077  -0.043158
 1639.0    0.038522  -0.043477
 1640.0    0.038967  -0.043797
 1641.0    0.039421  -0.044128
 1642.0    0.039874  -0.044458
 1643.0    0.040327  -0.044789
 1644.0    0.040780  -0.045120
 1645.0    0.041233  -0.045451
 1646.0    0.041696  -0.045795
 1647.0    0.042160  -0.046138
 1648.0    0.042623  -0.046482
 1649.0    0.043086  -0.046826
 1650.0    0.043549  -0.047169
 1651.0    0.044029  -0.047525
 1652.0    0.044509  -0.047882
 1653.0    0.044989  -0.048238
 1654.0    0.045468  -0.048594
 1655.0    0.045948  -0.048950
 1656.0    0.046446  -0.049318
 1657.0    0.046943  -0.049686
 1658.0    0.047441  -0.050054
 1659.0    0.047939  -0.050422
 1660.0    0.048436  -0.050790
 1661.0    0.048955  -0.051167
 1662.0    0.049475  -0.051545
 1663.0    0.049994  -0.051923
 1664.0    0.050513  -0.052300
 1665.0    0.051032  -0.052678
 1666.0    0.051575  -0.053062
 1667.0    0.052118  -0.053447
 1668.0    0.052661  -0.053831
 1669.0    0.053204  -0.054216
 1670.0    0.053748  -0.054600
 1671.0    0.054316  -0.054988
 1672.0    0.054885  -0.055375
 1673.0    0.055454  -0.055763
 1674.0    0.056023  -0.056150
 1675.0    0.056592  -0.056538
 1676.0    0.057186  -0.056925
 1677.0    0.057781  -0.057312
 1678.0    0.058376  -0.057698
 1679.0    0.058971  -0.058085
 1680.0    0.059566  -0.058472
 1681.0    0.060186  -0.058855
 1682.0    0.060806  -0.059237
 1683.0    0.061427  -0.059619
 1684.0    0.062047  -0.060002
 1685.0    0.062667  -0.060384
 1686.0    0.063311  -0.060759
 1687.0    0.063955  -0.061133
 1688.0    0.064599  -0.061507
 1689.0    0.065244  -0.061881
 1690.0    0.065888  -0.062256
 1691.0    0.066553  -0.062619
 1692.0    0.067219  -0.062982
 1693.0    0.067884  -0.063345
 1694.0    0.068550  -0.063709
 1695.0    0.069216  -0.064072
 1696.0    0.069900  -0.064421
 1697.0    0.070584  -0.064771
 1698.0    0.071269  -0.065120
 1699.0    0.071953  -0.065470
 1700.0    0.072638  -0.065819
 1701.0    0.073338  -0.066153
 1702.0    0.074038  -0.066487
 1703.0    0.074738  -0.066821
 1704.0    0.075438  -0.067155
 1705.0    0.076138  -0.067489
 1706.0    0.076850  -0.067807
 1707.0    0.077563  -0.068124
 1708.0    0.078275  -0.068441
 1709.0    0.078988  -0.068758
 1710.0    0.079701  -0.069075
 1711.0    0.080423  -0.069375
 1712.0    0.081146  -0.069675
 1713.0    0.081868  -0.069974
 1714.0    0.082591  -0.070274
 1715.0    0.083313  -0.070574
 1716.0    0.084043  -0.070855
