   W         E3-(pi0_p)
 (MeV)      Re         Im
 1074.0   -0.000121   0.000042
 1075.0   -0.000073   0.000025
 1076.0   -0.000025   0.000008
 1077.0    0.000023  -0.000010
 1078.0    0.000071  -0.000027
 1079.0    0.000118  -0.000044
 1080.0    0.000166  -0.000061
 1081.0    0.000214  -0.000078
 1082.0    0.000262  -0.000096
 1083.0    0.000310  -0.000113
 1084.0    0.000358  -0.000130
 1085.0    0.000406  -0.000147
 1086.0    0.000471  -0.000170
 1087.0    0.000536  -0.000193
 1088.0    0.000601  -0.000216
 1089.0    0.000666  -0.000239
 1090.0    0.000731  -0.000262
 1091.0    0.000814  -0.000291
 1092.0    0.000897  -0.000319
 1093.0    0.000979  -0.000348
 1094.0    0.001062  -0.000376
 1095.0    0.001144  -0.000405
 1096.0    0.001245  -0.000439
 1097.0    0.001345  -0.000473
 1098.0    0.001446  -0.000507
 1099.0    0.001546  -0.000541
 1100.0    0.001647  -0.000575
 1101.0    0.001766  -0.000615
 1102.0    0.001885  -0.000655
 1103.0    0.002004  -0.000695
 1104.0    0.002123  -0.000734
 1105.0    0.002242  -0.000774
 1106.0    0.002380  -0.000820
 1107.0    0.002519  -0.000865
 1108.0    0.002657  -0.000911
 1109.0    0.002796  -0.000956
 1110.0    0.002934  -0.001002
 1111.0    0.003093  -0.001053
 1112.0    0.003252  -0.001105
 1113.0    0.003410  -0.001156
 1114.0    0.003569  -0.001208
 1115.0    0.003728  -0.001259
 1116.0    0.003908  -0.001317
 1117.0    0.004088  -0.001374
 1118.0    0.004267  -0.001432
 1119.0    0.004447  -0.001489
 1120.0    0.004627  -0.001547
 1121.0    0.004829  -0.001610
 1122.0    0.005031  -0.001674
 1123.0    0.005233  -0.001737
 1124.0    0.005435  -0.001801
 1125.0    0.005637  -0.001865
 1126.0    0.005862  -0.001935
 1127.0    0.006087  -0.002005
 1128.0    0.006312  -0.002074
 1129.0    0.006536  -0.002144
 1130.0    0.006761  -0.002214
 1131.0    0.007010  -0.002290
 1132.0    0.007259  -0.002367
 1133.0    0.007508  -0.002443
 1134.0    0.007756  -0.002519
 1135.0    0.008005  -0.002595
 1136.0    0.008279  -0.002678
 1137.0    0.008552  -0.002760
 1138.0    0.008826  -0.002843
 1139.0    0.009099  -0.002926
 1140.0    0.009373  -0.003008
 1141.0    0.009672  -0.003097
 1142.0    0.009971  -0.003186
 1143.0    0.010270  -0.003276
 1144.0    0.010569  -0.003365
 1145.0    0.010868  -0.003454
 1146.0    0.011194  -0.003549
 1147.0    0.011520  -0.003645
 1148.0    0.011846  -0.003740
 1149.0    0.012171  -0.003836
 1150.0    0.012497  -0.003932
 1151.0    0.012850  -0.004034
 1152.0    0.013203  -0.004136
 1153.0    0.013556  -0.004238
 1154.0    0.013909  -0.004340
 1155.0    0.014263  -0.004442
 1156.0    0.014644  -0.004550
 1157.0    0.015025  -0.004659
 1158.0    0.015407  -0.004767
 1159.0    0.015788  -0.004876
 1160.0    0.016170  -0.004984
 1161.0    0.016580  -0.005099
 1162.0    0.016991  -0.005214
 1163.0    0.017401  -0.005329
 1164.0    0.017812  -0.005444
 1165.0    0.018222  -0.005559
 1166.0    0.018663  -0.005680
 1167.0    0.019103  -0.005801
 1168.0    0.019544  -0.005923
 1169.0    0.019984  -0.006044
 1170.0    0.020425  -0.006165
 1171.0    0.020896  -0.006293
 1172.0    0.021367  -0.006420
 1173.0    0.021839  -0.006548
 1174.0    0.022310  -0.006675
 1175.0    0.022781  -0.006803
 1176.0    0.023284  -0.006936
 1177.0    0.023787  -0.007070
 1178.0    0.024290  -0.007203
 1179.0    0.024793  -0.007337
 1180.0    0.025296  -0.007470
 1181.0    0.025831  -0.007610
 1182.0    0.026366  -0.007749
 1183.0    0.026901  -0.007889
 1184.0    0.027437  -0.008028
 1185.0    0.027972  -0.008168
 1186.0    0.028540  -0.008313
 1187.0    0.029109  -0.008458
 1188.0    0.029677  -0.008603
 1189.0    0.030246  -0.008749
 1190.0    0.030814  -0.008894
 1191.0    0.031416  -0.009045
 1192.0    0.032019  -0.009195
 1193.0    0.032621  -0.009346
 1194.0    0.033223  -0.009497
 1195.0    0.033826  -0.009647
 1196.0    0.034462  -0.009803
 1197.0    0.035099  -0.009959
 1198.0    0.035736  -0.010115
 1199.0    0.036373  -0.010271
 1200.0    0.037010  -0.010427
 1201.0    0.037683  -0.010588
 1202.0    0.038355  -0.010749
 1203.0    0.039027  -0.010909
 1204.0    0.039699  -0.011070
 1205.0    0.040372  -0.011231
 1206.0    0.041080  -0.011397
 1207.0    0.041788  -0.011562
 1208.0    0.042497  -0.011727
 1209.0    0.043205  -0.011893
 1210.0    0.043913  -0.012058
 1211.0    0.044658  -0.012228
 1212.0    0.045404  -0.012398
 1213.0    0.046149  -0.012567
 1214.0    0.046894  -0.012737
 1215.0    0.047639  -0.012907
 1216.0    0.048421  -0.013080
 1217.0    0.049204  -0.013254
 1218.0    0.049986  -0.013427
 1219.0    0.050769  -0.013601
 1220.0    0.051551  -0.013774
 1221.0    0.052372  -0.013951
 1222.0    0.053192  -0.014128
 1223.0    0.054013  -0.014305
 1224.0    0.054833  -0.014482
 1225.0    0.055654  -0.014659
 1226.0    0.056513  -0.014838
 1227.0    0.057372  -0.015018
 1228.0    0.058231  -0.015198
 1229.0    0.059090  -0.015378
 1230.0    0.059950  -0.015558
 1231.0    0.060848  -0.015740
 1232.0    0.061746  -0.015922
 1233.0    0.062645  -0.016104
 1234.0    0.063543  -0.016287
 1235.0    0.064442  -0.016469
 1236.0    0.065380  -0.016653
 1237.0    0.066318  -0.016837
 1238.0    0.067257  -0.017021
 1239.0    0.068195  -0.017206
 1240.0    0.069133  -0.017390
 1241.0    0.070112  -0.017575
 1242.0    0.071091  -0.017761
 1243.0    0.072069  -0.017946
 1244.0    0.073048  -0.018132
 1245.0    0.074027  -0.018317
 1246.0    0.075047  -0.018503
 1247.0    0.076066  -0.018690
 1248.0    0.077086  -0.018876
 1249.0    0.078106  -0.019062
 1250.0    0.079126  -0.019249
 1251.0    0.080187  -0.019435
 1252.0    0.081248  -0.019621
 1253.0    0.082310  -0.019808
 1254.0    0.083371  -0.019994
 1255.0    0.084432  -0.020181
 1256.0    0.085535  -0.020367
 1257.0    0.086639  -0.020553
 1258.0    0.087742  -0.020739
 1259.0    0.088845  -0.020925
 1260.0    0.089949  -0.021110
 1261.0    0.091095  -0.021296
 1262.0    0.092240  -0.021481
 1263.0    0.093386  -0.021667
 1264.0    0.094532  -0.021852
 1265.0    0.095678  -0.022038
 1266.0    0.096867  -0.022219
 1267.0    0.098057  -0.022400
 1268.0    0.099246  -0.022582
 1269.0    0.100436  -0.022763
 1270.0    0.101625  -0.022944
 1271.0    0.102857  -0.023125
 1272.0    0.104090  -0.023306
 1273.0    0.105322  -0.023487
 1274.0    0.106555  -0.023668
 1275.0    0.107787  -0.023849
 1276.0    0.109064  -0.024026
 1277.0    0.110341  -0.024202
 1278.0    0.111618  -0.024378
 1279.0    0.112895  -0.024554
 1280.0    0.114172  -0.024730
 1281.0    0.115493  -0.024903
 1282.0    0.116814  -0.025076
 1283.0    0.118135  -0.025248
 1284.0    0.119457  -0.025421
 1285.0    0.120778  -0.025593
 1286.0    0.122144  -0.025761
 1287.0    0.123511  -0.025928
 1288.0    0.124877  -0.026095
 1289.0    0.126244  -0.026262
 1290.0    0.127610  -0.026429
 1291.0    0.129022  -0.026590
 1292.0    0.130434  -0.026752
 1293.0    0.131846  -0.026913
 1294.0    0.133258  -0.027074
 1295.0    0.134669  -0.027236
 1296.0    0.136127  -0.027390
 1297.0    0.137585  -0.027544
 1298.0    0.139043  -0.027699
 1299.0    0.140501  -0.027853
 1300.0    0.141959  -0.028007
 1301.0    0.143463  -0.028154
 1302.0    0.144968  -0.028300
 1303.0    0.146472  -0.028447
 1304.0    0.147976  -0.028593
 1305.0    0.149481  -0.028740
 1306.0    0.151032  -0.028877
 1307.0    0.152583  -0.029014
 1308.0    0.154134  -0.029152
 1309.0    0.155686  -0.029289
 1310.0    0.157237  -0.029426
 1311.0    0.158836  -0.029554
 1312.0    0.160435  -0.029681
 1313.0    0.162033  -0.029808
 1314.0    0.163632  -0.029936
 1315.0    0.165231  -0.030063
 1316.0    0.166878  -0.030179
 1317.0    0.168524  -0.030295
 1318.0    0.170171  -0.030411
 1319.0    0.171818  -0.030527
 1320.0    0.173464  -0.030643
 1321.0    0.175159  -0.030747
 1322.0    0.176854  -0.030851
 1323.0    0.178549  -0.030955
 1324.0    0.180244  -0.031059
 1325.0    0.181939  -0.031163
 1326.0    0.183683  -0.031253
 1327.0    0.185427  -0.031343
 1328.0    0.187171  -0.031433
 1329.0    0.188916  -0.031523
 1330.0    0.190660  -0.031613
 1331.0    0.192453  -0.031688
 1332.0    0.194247  -0.031763
 1333.0    0.196040  -0.031838
 1334.0    0.197834  -0.031914
 1335.0    0.199627  -0.031989
 1336.0    0.201471  -0.032047
 1337.0    0.203315  -0.032106
 1338.0    0.205158  -0.032165
 1339.0    0.207002  -0.032223
 1340.0    0.208845  -0.032282
 1341.0    0.210739  -0.032323
 1342.0    0.212634  -0.032363
 1343.0    0.214528  -0.032404
 1344.0    0.216422  -0.032445
 1345.0    0.218316  -0.032486
 1346.0    0.220261  -0.032509
 1347.0    0.222206  -0.032532
 1348.0    0.224151  -0.032555
 1349.0    0.226096  -0.032578
 1350.0    0.228041  -0.032602
 1351.0    0.230039  -0.032601
 1352.0    0.232037  -0.032600
 1353.0    0.234034  -0.032598
 1354.0    0.236032  -0.032597
 1355.0    0.238030  -0.032596
 1356.0    0.240080  -0.032574
 1357.0    0.242130  -0.032552
 1358.0    0.244180  -0.032530
 1359.0    0.246230  -0.032507
 1360.0    0.248280  -0.032485
 1361.0    0.250383  -0.032438
 1362.0    0.252486  -0.032392
 1363.0    0.254589  -0.032345
 1364.0    0.256692  -0.032298
 1365.0    0.258796  -0.032252
 1366.0    0.260953  -0.032179
 1367.0    0.263110  -0.032106
 1368.0    0.265268  -0.032033
 1369.0    0.267425  -0.031960
 1370.0    0.269583  -0.031888
 1371.0    0.271795  -0.031787
 1372.0    0.274007  -0.031686
 1373.0    0.276219  -0.031585
 1374.0    0.278432  -0.031484
 1375.0    0.280644  -0.031383
 1376.0    0.282912  -0.031252
 1377.0    0.285180  -0.031121
 1378.0    0.287448  -0.030990
 1379.0    0.289717  -0.030859
 1380.0    0.291985  -0.030728
 1381.0    0.294310  -0.030564
 1382.0    0.296635  -0.030400
 1383.0    0.298960  -0.030237
 1384.0    0.301285  -0.030073
 1385.0    0.303610  -0.029910
 1386.0    0.305993  -0.029713
 1387.0    0.308376  -0.029517
 1388.0    0.310758  -0.029320
 1389.0    0.313141  -0.029123
 1390.0    0.315523  -0.028927
 1391.0    0.317965  -0.028693
 1392.0    0.320407  -0.028459
 1393.0    0.322849  -0.028225
 1394.0    0.325291  -0.027992
 1395.0    0.327733  -0.027758
 1396.0    0.330235  -0.027485
 1397.0    0.332737  -0.027212
 1398.0    0.335239  -0.026940
 1399.0    0.337741  -0.026667
 1400.0    0.340244  -0.026395
 1401.0    0.342807  -0.026081
 1402.0    0.345371  -0.025767
 1403.0    0.347934  -0.025453
 1404.0    0.350498  -0.025139
 1405.0    0.353062  -0.024825
 1406.0    0.355688  -0.024467
 1407.0    0.358315  -0.024110
 1408.0    0.360942  -0.023752
 1409.0    0.363568  -0.023394
 1410.0    0.366195  -0.023036
 1411.0    0.368886  -0.022632
 1412.0    0.371577  -0.022227
 1413.0    0.374268  -0.021822
 1414.0    0.376960  -0.021418
 1415.0    0.379651  -0.021013
 1416.0    0.382408  -0.020559
 1417.0    0.385166  -0.020105
 1418.0    0.387923  -0.019651
 1419.0    0.390680  -0.019197
 1420.0    0.393438  -0.018742
 1421.0    0.396263  -0.018235
 1422.0    0.399089  -0.017728
 1423.0    0.401914  -0.017221
 1424.0    0.404739  -0.016714
 1425.0    0.407565  -0.016207
 1426.0    0.410460  -0.015643
 1427.0    0.413355  -0.015080
 1428.0    0.416251  -0.014516
 1429.0    0.419146  -0.013953
 1430.0    0.422041  -0.013390
 1431.0    0.425009  -0.012765
 1432.0    0.427977  -0.012141
 1433.0    0.430944  -0.011516
 1434.0    0.433912  -0.010892
 1435.0    0.436879  -0.010268
 1436.0    0.439921  -0.009582
 1437.0    0.442962  -0.008895
 1438.0    0.446003  -0.008209
 1439.0    0.449045  -0.007523
 1440.0    0.452086  -0.006837
 1441.0    0.455205  -0.006082
 1442.0    0.458323  -0.005326
 1443.0    0.461441  -0.004570
 1444.0    0.464560  -0.003815
 1445.0    0.467678  -0.003059
 1446.0    0.470876  -0.002231
 1447.0    0.474073  -0.001402
 1448.0    0.477271  -0.000574
 1449.0    0.480469   0.000255
 1450.0    0.483667   0.001083
 1451.0    0.486946   0.001990
 1452.0    0.490226   0.002896
 1453.0    0.493506   0.003803
 1454.0    0.496786   0.004709
 1455.0    0.500065   0.005616
 1456.0    0.503430   0.006606
 1457.0    0.506795   0.007596
 1458.0    0.510160   0.008586
 1459.0    0.513525   0.009576
 1460.0    0.516890   0.010566
 1461.0    0.520343   0.011646
 1462.0    0.523796   0.012726
 1463.0    0.527249   0.013806
 1464.0    0.530702   0.014886
 1465.0    0.534155   0.015965
 1466.0    0.537700   0.017142
 1467.0    0.541245   0.018318
 1468.0    0.544790   0.019494
 1469.0    0.548334   0.020670
 1470.0    0.551879   0.021846
 1471.0    0.555519   0.023126
 1472.0    0.559159   0.024406
 1473.0    0.562799   0.025686
 1474.0    0.566440   0.026966
 1475.0    0.570080   0.028246
 1476.0    0.573819   0.029638
 1477.0    0.577558   0.031030
 1478.0    0.581297   0.032422
 1479.0    0.585036   0.033814
 1480.0    0.588775   0.035206
 1481.0    0.592618   0.036718
 1482.0    0.596460   0.038231
 1483.0    0.600302   0.039744
 1484.0    0.604145   0.041257
 1485.0    0.607987   0.042770
 1486.0    0.611936   0.044414
 1487.0    0.615886   0.046058
 1488.0    0.619836   0.047701
 1489.0    0.623785   0.049345
 1490.0    0.627735   0.050989
 1491.0    0.631796   0.052775
 1492.0    0.635858   0.054561
 1493.0    0.639919   0.056347
 1494.0    0.643980   0.058133
 1495.0    0.648042   0.059919
 1496.0    0.652219   0.061859
 1497.0    0.656397   0.063800
 1498.0    0.660574   0.065740
 1499.0    0.664752   0.067680
 1500.0    0.668930   0.069621
 1501.0    0.673228   0.071729
 1502.0    0.677527   0.073838
 1503.0    0.681825   0.075946
 1504.0    0.686124   0.078054
 1505.0    0.690422   0.080163
 1506.0    0.694847   0.082456
 1507.0    0.699271   0.084748
 1508.0    0.703696   0.087041
 1509.0    0.708120   0.089334
 1510.0    0.712544   0.091627
 1511.0    0.717099   0.094121
 1512.0    0.721654   0.096615
 1513.0    0.726209   0.099109
 1514.0    0.730764   0.101602
 1515.0    0.735319   0.104096
 1516.0    0.740008   0.106811
 1517.0    0.744698   0.109525
 1518.0    0.749388   0.112239
 1519.0    0.754078   0.114954
 1520.0    0.758767   0.117668
 1521.0    0.763597   0.120625
 1522.0    0.768426   0.123582
 1523.0    0.773255   0.126539
 1524.0    0.778085   0.129496
 1525.0    0.782914   0.132453
 1526.0    0.787887   0.135677
 1527.0    0.792860   0.138902
 1528.0    0.797833   0.142126
 1529.0    0.802805   0.145350
 1530.0    0.807778   0.148575
 1531.0    0.812898   0.152094
 1532.0    0.818017   0.155614
 1533.0    0.823137   0.159133
 1534.0    0.828257   0.162652
 1535.0    0.833376   0.166172
 1536.0    0.838645   0.170018
 1537.0    0.843913   0.173864
 1538.0    0.849182   0.177710
 1539.0    0.854450   0.181556
 1540.0    0.859719   0.185402
 1541.0    0.865138   0.189610
 1542.0    0.870556   0.193818
 1543.0    0.875975   0.198026
 1544.0    0.881394   0.202234
 1545.0    0.886813   0.206442
 1546.0    0.892381   0.211052
 1547.0    0.897949   0.215663
 1548.0    0.903517   0.220273
 1549.0    0.909085   0.224884
 1550.0    0.914653   0.229495
 1551.0    0.920367   0.234553
 1552.0    0.926080   0.239612
 1553.0    0.931794   0.244671
 1554.0    0.937508   0.249729
 1555.0    0.943222   0.254788
 1556.0    0.949074   0.260346
 1557.0    0.954926   0.265905
 1558.0    0.960779   0.271463
 1559.0    0.966631   0.277021
 1560.0    0.972483   0.282580
 1561.0    0.978464   0.288695
 1562.0    0.984445   0.294810
 1563.0    0.990426   0.300925
 1564.0    0.996406   0.307041
 1565.0    1.002387   0.313156
 1566.0    1.008477   0.319895
 1567.0    1.014567   0.326635
 1568.0    1.020657   0.333374
 1569.0    1.026747   0.340114
 1570.0    1.032837   0.346853
 1571.0    1.039012   0.354290
 1572.0    1.045186   0.361727
 1573.0    1.051360   0.369164
 1574.0    1.057535   0.376601
 1575.0    1.063709   0.384039
 1576.0    1.069932   0.392256
 1577.0    1.076154   0.400473
 1578.0    1.082377   0.408691
 1579.0    1.088600   0.416908
 1580.0    1.094822   0.425126
 1581.0    1.101044   0.434216
 1582.0    1.107266   0.443307
 1583.0    1.113488   0.452398
 1584.0    1.119710   0.461489
 1585.0    1.125932   0.470580
 1586.0    1.132086   0.480646
 1587.0    1.138240   0.490713
 1588.0    1.144395   0.500779
 1589.0    1.150549   0.510845
 1590.0    1.156703   0.520911
 1591.0    1.162701   0.532063
 1592.0    1.168698   0.543215
 1593.0    1.174695   0.554367
 1594.0    1.180692   0.565518
 1595.0    1.186690   0.576670
 1596.0    1.192413   0.589028
 1597.0    1.198137   0.601385
 1598.0    1.203860   0.613743
 1599.0    1.209584   0.626100
 1600.0    1.215307   0.638458
 1601.0    1.220604   0.652143
 1602.0    1.225900   0.665829
 1603.0    1.231197   0.679514
 1604.0    1.236493   0.693199
 1605.0    1.241790   0.706885
 1606.0    1.246462   0.722021
 1607.0    1.251135   0.737157
 1608.0    1.255807   0.752293
 1609.0    1.260480   0.767429
 1610.0    1.265152   0.782565
 1611.0    1.268951   0.799265
 1612.0    1.272749   0.815965
 1613.0    1.276548   0.832664
 1614.0    1.280346   0.849364
 1615.0    1.284145   0.866063
 1616.0    1.286755   0.884414
 1617.0    1.289366   0.902765
 1618.0    1.291976   0.921116
 1619.0    1.294587   0.939467
 1620.0    1.297198   0.957818
 1621.0    1.298236   0.977867
 1622.0    1.299274   0.997916
 1623.0    1.300312   1.017965
 1624.0    1.301350   1.038014
 1625.0    1.302388   1.058063
 1626.0    1.301393   1.079785
 1627.0    1.300397   1.101506
 1628.0    1.299402   1.123227
 1629.0    1.298407   1.144949
 1630.0    1.297412   1.166670
 1631.0    1.293851   1.189931
 1632.0    1.290290   1.213192
 1633.0    1.286728   1.236453
 1634.0    1.283167   1.259714
 1635.0    1.279606   1.282975
 1636.0    1.272893   1.307492
 1637.0    1.266179   1.332009
 1638.0    1.259465   1.356525
 1639.0    1.252752   1.381042
 1640.0    1.246038   1.405559
 1641.0    1.235570   1.430850
 1642.0    1.225102   1.456141
 1643.0    1.214634   1.481432
 1644.0    1.204167   1.506723
 1645.0    1.193699   1.532015
 1646.0    1.178928   1.557360
 1647.0    1.164157   1.582706
 1648.0    1.149386   1.608052
 1649.0    1.134615   1.633398
 1650.0    1.119843   1.658744
 1651.0    1.100371   1.683170
 1652.0    1.080899   1.707596
 1653.0    1.061427   1.732022
 1654.0    1.041954   1.756448
 1655.0    1.022482   1.780875
 1656.0    0.998168   1.803159
 1657.0    0.973854   1.825444
 1658.0    0.949540   1.847729
 1659.0    0.925226   1.870013
 1660.0    0.900913   1.892298
 1661.0    0.872066   1.911169
 1662.0    0.843220   1.930041
 1663.0    0.814373   1.948912
 1664.0    0.785527   1.967784
 1665.0    0.756680   1.986655
 1666.0    0.724003   2.000732
 1667.0    0.691326   2.014810
 1668.0    0.658649   2.028887
 1669.0    0.625972   2.042964
 1670.0    0.593295   2.057041
 1671.0    0.558028   2.065282
 1672.0    0.522760   2.073522
 1673.0    0.487493   2.081763
 1674.0    0.452226   2.090003
 1675.0    0.416958   2.098244
 1676.0    0.380690   2.100020
 1677.0    0.344421   2.101796
 1678.0    0.308153   2.103572
 1679.0    0.271884   2.105348
 1680.0    0.235615   2.107125
 1681.0    0.200085   2.102395
 1682.0    0.164555   2.097665
 1683.0    0.129025   2.092935
 1684.0    0.093494   2.088205
 1685.0    0.057964   2.083476
 1686.0    0.024807   2.072796
 1687.0   -0.008351   2.062117
 1688.0   -0.041508   2.051438
 1689.0   -0.074665   2.040759
 1690.0   -0.107823   2.030080
 1691.0   -0.137316   2.014490
 1692.0   -0.166808   1.998899
 1693.0   -0.196301   1.983309
 1694.0   -0.225794   1.967719
 1695.0   -0.255287   1.952128
 1696.0   -0.280300   1.932943
 1697.0   -0.305312   1.913758
 1698.0   -0.330325   1.894573
 1699.0   -0.355337   1.875388
 1700.0   -0.380350   1.856204
 1701.0   -0.400563   1.834800
 1702.0   -0.420777   1.813396
 1703.0   -0.440990   1.791992
 1704.0   -0.461203   1.770589
 1705.0   -0.481417   1.749185
 1706.0   -0.496936   1.726817
 1707.0   -0.512455   1.704449
 1708.0   -0.527975   1.682081
 1709.0   -0.543494   1.659714
 1710.0   -0.559013   1.637346
 1711.0   -0.570243   1.615039
 1712.0   -0.581473   1.592733
 1713.0   -0.592702   1.570427
 1714.0   -0.603932   1.548120
 1715.0   -0.615162   1.525814
 1716.0   -0.622680   1.504326
