   W         M2-(pi0_p)
 (MeV)      Re         Im
 1074.0   -0.000002   0.000053
 1075.0    0.000408   0.000246
 1076.0    0.000819   0.000439
 1077.0    0.001230   0.000633
 1078.0    0.001641   0.000826
 1079.0    0.002052   0.001019
 1080.0    0.002462   0.001212
 1081.0    0.002873   0.001405
 1082.0    0.003284   0.001598
 1083.0    0.003695   0.001791
 1084.0    0.004106   0.001984
 1085.0    0.004517   0.002177
 1086.0    0.004969   0.002381
 1087.0    0.005422   0.002585
 1088.0    0.005875   0.002789
 1089.0    0.006327   0.002993
 1090.0    0.006780   0.003197
 1091.0    0.007277   0.003411
 1092.0    0.007774   0.003625
 1093.0    0.008271   0.003839
 1094.0    0.008769   0.004053
 1095.0    0.009266   0.004267
 1096.0    0.009810   0.004490
 1097.0    0.010354   0.004713
 1098.0    0.010898   0.004937
 1099.0    0.011442   0.005160
 1100.0    0.011986   0.005384
 1101.0    0.012580   0.005616
 1102.0    0.013174   0.005848
 1103.0    0.013767   0.006081
 1104.0    0.014361   0.006313
 1105.0    0.014955   0.006545
 1106.0    0.015601   0.006786
 1107.0    0.016247   0.007026
 1108.0    0.016892   0.007267
 1109.0    0.017538   0.007508
 1110.0    0.018184   0.007748
 1111.0    0.018885   0.007996
 1112.0    0.019586   0.008245
 1113.0    0.020286   0.008493
 1114.0    0.020987   0.008741
 1115.0    0.021688   0.008990
 1116.0    0.022446   0.009245
 1117.0    0.023204   0.009501
 1118.0    0.023963   0.009757
 1119.0    0.024721   0.010012
 1120.0    0.025479   0.010268
 1121.0    0.026297   0.010530
 1122.0    0.027116   0.010793
 1123.0    0.027934   0.011055
 1124.0    0.028752   0.011317
 1125.0    0.029571   0.011580
 1126.0    0.030452   0.011849
 1127.0    0.031333   0.012118
 1128.0    0.032214   0.012386
 1129.0    0.033095   0.012655
 1130.0    0.033976   0.012924
 1131.0    0.034922   0.013199
 1132.0    0.035869   0.013474
 1133.0    0.036815   0.013749
 1134.0    0.037762   0.014024
 1135.0    0.038708   0.014299
 1136.0    0.039723   0.014580
 1137.0    0.040738   0.014861
 1138.0    0.041752   0.015142
 1139.0    0.042767   0.015423
 1140.0    0.043781   0.015704
 1141.0    0.044866   0.015991
 1142.0    0.045952   0.016278
 1143.0    0.047037   0.016565
 1144.0    0.048122   0.016851
 1145.0    0.049207   0.017138
 1146.0    0.050366   0.017431
 1147.0    0.051525   0.017723
 1148.0    0.052683   0.018016
 1149.0    0.053842   0.018308
 1150.0    0.055000   0.018601
 1151.0    0.056235   0.018899
 1152.0    0.057469   0.019197
 1153.0    0.058704   0.019495
 1154.0    0.059938   0.019794
 1155.0    0.061173   0.020092
 1156.0    0.062486   0.020396
 1157.0    0.063799   0.020700
 1158.0    0.065112   0.021004
 1159.0    0.066425   0.021308
 1160.0    0.067739   0.021612
 1161.0    0.069133   0.021923
 1162.0    0.070527   0.022233
 1163.0    0.071921   0.022543
 1164.0    0.073316   0.022853
 1165.0    0.074710   0.023163
 1166.0    0.076188   0.023480
 1167.0    0.077666   0.023797
 1168.0    0.079144   0.024113
 1169.0    0.080622   0.024430
 1170.0    0.082100   0.024746
 1171.0    0.083665   0.025070
 1172.0    0.085229   0.025393
 1173.0    0.086794   0.025717
 1174.0    0.088358   0.026040
 1175.0    0.089922   0.026363
 1176.0    0.091576   0.026694
 1177.0    0.093229   0.027025
 1178.0    0.094882   0.027356
 1179.0    0.096536   0.027686
 1180.0    0.098189   0.028017
 1181.0    0.099934   0.028356
 1182.0    0.101679   0.028694
 1183.0    0.103424   0.029033
 1184.0    0.105169   0.029372
 1185.0    0.106913   0.029711
 1186.0    0.108752   0.030058
 1187.0    0.110591   0.030405
 1188.0    0.112430   0.030753
 1189.0    0.114269   0.031100
 1190.0    0.116108   0.031448
 1191.0    0.118043   0.031805
 1192.0    0.119979   0.032162
 1193.0    0.121914   0.032519
 1194.0    0.123850   0.032876
 1195.0    0.125785   0.033233
 1196.0    0.127820   0.033600
 1197.0    0.129855   0.033968
 1198.0    0.131889   0.034336
 1199.0    0.133924   0.034703
 1200.0    0.135959   0.035071
 1201.0    0.138095   0.035450
 1202.0    0.140231   0.035829
 1203.0    0.142368   0.036208
 1204.0    0.144504   0.036588
 1205.0    0.146641   0.036967
 1206.0    0.148881   0.037359
 1207.0    0.151122   0.037751
 1208.0    0.153362   0.038143
 1209.0    0.155603   0.038536
 1210.0    0.157844   0.038928
 1211.0    0.160191   0.039335
 1212.0    0.162538   0.039742
 1213.0    0.164885   0.040150
 1214.0    0.167232   0.040557
 1215.0    0.169580   0.040964
 1216.0    0.172036   0.041389
 1217.0    0.174492   0.041813
 1218.0    0.176948   0.042238
 1219.0    0.179404   0.042662
 1220.0    0.181860   0.043087
 1221.0    0.184428   0.043530
 1222.0    0.186995   0.043974
 1223.0    0.189563   0.044418
 1224.0    0.192130   0.044861
 1225.0    0.194698   0.045305
 1226.0    0.197380   0.045770
 1227.0    0.200061   0.046236
 1228.0    0.202743   0.046701
 1229.0    0.205425   0.047166
 1230.0    0.208106   0.047631
 1231.0    0.210904   0.048121
 1232.0    0.213702   0.048610
 1233.0    0.216501   0.049100
 1234.0    0.219299   0.049589
 1235.0    0.222097   0.050079
 1236.0    0.225014   0.050595
 1237.0    0.227932   0.051112
 1238.0    0.230849   0.051629
 1239.0    0.233766   0.052145
 1240.0    0.236684   0.052662
 1241.0    0.239723   0.053209
 1242.0    0.242762   0.053756
 1243.0    0.245801   0.054303
 1244.0    0.248840   0.054850
 1245.0    0.251879   0.055396
 1246.0    0.255043   0.055977
 1247.0    0.258206   0.056558
 1248.0    0.261370   0.057139
 1249.0    0.264533   0.057720
 1250.0    0.267697   0.058301
 1251.0    0.270987   0.058920
 1252.0    0.274278   0.059539
 1253.0    0.277569   0.060158
 1254.0    0.280859   0.060777
 1255.0    0.284150   0.061395
 1256.0    0.287571   0.062057
 1257.0    0.290991   0.062718
 1258.0    0.294412   0.063380
 1259.0    0.297832   0.064041
 1260.0    0.301253   0.064702
 1261.0    0.304806   0.065410
 1262.0    0.308359   0.066118
 1263.0    0.311911   0.066826
 1264.0    0.315464   0.067534
 1265.0    0.319017   0.068242
 1266.0    0.322707   0.069007
 1267.0    0.326396   0.069772
 1268.0    0.330086   0.070537
 1269.0    0.333775   0.071302
 1270.0    0.337464   0.072067
 1271.0    0.341291   0.072888
 1272.0    0.345118   0.073709
 1273.0    0.348945   0.074530
 1274.0    0.352771   0.075351
 1275.0    0.356598   0.076172
 1276.0    0.360567   0.077062
 1277.0    0.364535   0.077953
 1278.0    0.368504   0.078844
 1279.0    0.372472   0.079734
 1280.0    0.376441   0.080625
 1281.0    0.380553   0.081590
 1282.0    0.384666   0.082555
 1283.0    0.388778   0.083520
 1284.0    0.392890   0.084485
 1285.0    0.397003   0.085450
 1286.0    0.401262   0.086501
 1287.0    0.405521   0.087552
 1288.0    0.409780   0.088603
 1289.0    0.414039   0.089654
 1290.0    0.418299   0.090705
 1291.0    0.422707   0.091852
 1292.0    0.427115   0.092998
 1293.0    0.431523   0.094145
 1294.0    0.435932   0.095291
 1295.0    0.440340   0.096437
 1296.0    0.444900   0.097692
 1297.0    0.449460   0.098947
 1298.0    0.454019   0.100201
 1299.0    0.458579   0.101456
 1300.0    0.463139   0.102711
 1301.0    0.467852   0.104087
 1302.0    0.472565   0.105464
 1303.0    0.477278   0.106841
 1304.0    0.481991   0.108217
 1305.0    0.486703   0.109594
 1306.0    0.491571   0.111108
 1307.0    0.496438   0.112622
 1308.0    0.501305   0.114136
 1309.0    0.506173   0.115650
 1310.0    0.511040   0.117164
 1311.0    0.516062   0.118832
 1312.0    0.521084   0.120500
 1313.0    0.526107   0.122169
 1314.0    0.531129   0.123837
 1315.0    0.536151   0.125505
 1316.0    0.541327   0.127347
 1317.0    0.546504   0.129188
 1318.0    0.551680   0.131029
 1319.0    0.556856   0.132870
 1320.0    0.562033   0.134711
 1321.0    0.567361   0.136744
 1322.0    0.572689   0.138776
 1323.0    0.578018   0.140809
 1324.0    0.583346   0.142841
 1325.0    0.588674   0.144874
 1326.0    0.594152   0.147119
 1327.0    0.599630   0.149365
 1328.0    0.605108   0.151610
 1329.0    0.610586   0.153856
 1330.0    0.616064   0.156101
 1331.0    0.621688   0.158579
 1332.0    0.627311   0.161056
 1333.0    0.632934   0.163533
 1334.0    0.638558   0.166011
 1335.0    0.644181   0.168488
 1336.0    0.649945   0.171217
 1337.0    0.655710   0.173945
 1338.0    0.661474   0.176674
 1339.0    0.667238   0.179402
 1340.0    0.673002   0.182131
 1341.0    0.678902   0.185128
 1342.0    0.684803   0.188126
 1343.0    0.690703   0.191123
 1344.0    0.696603   0.194121
 1345.0    0.702503   0.197118
 1346.0    0.708534   0.200396
 1347.0    0.714565   0.203675
 1348.0    0.720595   0.206953
 1349.0    0.726626   0.210231
 1350.0    0.732657   0.213510
 1351.0    0.738820   0.217094
 1352.0    0.744984   0.220679
 1353.0    0.751147   0.224264
 1354.0    0.757311   0.227849
 1355.0    0.763474   0.231434
 1356.0    0.769767   0.235330
 1357.0    0.776059   0.239226
 1358.0    0.782351   0.243122
 1359.0    0.788643   0.247018
 1360.0    0.794936   0.250914
 1361.0    0.801360   0.255140
 1362.0    0.807785   0.259366
 1363.0    0.814209   0.263592
 1364.0    0.820634   0.267818
 1365.0    0.827058   0.272044
 1366.0    0.833620   0.276618
 1367.0    0.840182   0.281193
 1368.0    0.846744   0.285768
 1369.0    0.853306   0.290342
 1370.0    0.859868   0.294917
 1371.0    0.866574   0.299863
 1372.0    0.873279   0.304809
 1373.0    0.879985   0.309756
 1374.0    0.886691   0.314702
 1375.0    0.893397   0.319648
 1376.0    0.900255   0.324996
 1377.0    0.907112   0.330343
 1378.0    0.913970   0.335691
 1379.0    0.920827   0.341038
 1380.0    0.927685   0.346386
 1381.0    0.934702   0.352172
 1382.0    0.941719   0.357959
 1383.0    0.948735   0.363745
 1384.0    0.955752   0.369532
 1385.0    0.962769   0.375319
 1386.0    0.969949   0.381584
 1387.0    0.977129   0.387850
 1388.0    0.984309   0.394115
 1389.0    0.991489   0.400381
 1390.0    0.998669   0.406647
 1391.0    1.006016   0.413453
 1392.0    1.013363   0.420259
 1393.0    1.020710   0.427065
 1394.0    1.028057   0.433871
 1395.0    1.035404   0.440677
 1396.0    1.042914   0.448085
 1397.0    1.050425   0.455494
 1398.0    1.057935   0.462902
 1399.0    1.065446   0.470311
 1400.0    1.072956   0.477719
 1401.0    1.080620   0.485807
 1402.0    1.088284   0.493894
 1403.0    1.095947   0.501981
 1404.0    1.103611   0.510068
 1405.0    1.111274   0.518156
 1406.0    1.119072   0.527010
 1407.0    1.126870   0.535865
 1408.0    1.134667   0.544720
 1409.0    1.142465   0.553575
 1410.0    1.150263   0.562429
 1411.0    1.158162   0.572153
 1412.0    1.166062   0.581877
 1413.0    1.173962   0.591601
 1414.0    1.181861   0.601325
 1415.0    1.189761   0.611049
 1416.0    1.197714   0.621757
 1417.0    1.205667   0.632466
 1418.0    1.213620   0.643174
 1419.0    1.221573   0.653883
 1420.0    1.229526   0.664591
 1421.0    1.237462   0.676414
 1422.0    1.245398   0.688237
 1423.0    1.253334   0.700061
 1424.0    1.261270   0.711884
 1425.0    1.269207   0.723707
 1426.0    1.277027   0.736790
 1427.0    1.284848   0.749872
 1428.0    1.292669   0.762955
 1429.0    1.300489   0.776037
 1430.0    1.308310   0.789120
 1431.0    1.315879   0.803624
 1432.0    1.323448   0.818128
 1433.0    1.331018   0.832632
 1434.0    1.338587   0.847135
 1435.0    1.346156   0.861639
 1436.0    1.353289   0.877716
 1437.0    1.360422   0.893794
 1438.0    1.367555   0.909871
 1439.0    1.374688   0.925948
 1440.0    1.381821   0.942025
 1441.0    1.388277   0.959859
 1442.0    1.394734   0.977694
 1443.0    1.401190   0.995528
 1444.0    1.407646   1.013362
 1445.0    1.414103   1.031197
 1446.0    1.419563   1.050940
 1447.0    1.425024   1.070684
 1448.0    1.430484   1.090427
 1449.0    1.435944   1.110171
 1450.0    1.441405   1.129914
 1451.0    1.445462   1.151694
 1452.0    1.449519   1.173474
 1453.0    1.453577   1.195253
 1454.0    1.457634   1.217033
 1455.0    1.461691   1.238813
 1456.0    1.463833   1.262694
 1457.0    1.465975   1.286574
 1458.0    1.468117   1.310455
 1459.0    1.470259   1.334336
 1460.0    1.472402   1.358216
 1461.0    1.472011   1.384157
 1462.0    1.471620   1.410098
 1463.0    1.471230   1.436039
 1464.0    1.470839   1.461980
 1465.0    1.470448   1.487921
 1466.0    1.466808   1.515717
 1467.0    1.463167   1.543513
 1468.0    1.459527   1.571309
 1469.0    1.455886   1.599105
 1470.0    1.452246   1.626902
 1471.0    1.444576   1.656118
 1472.0    1.436905   1.685335
 1473.0    1.429235   1.714552
 1474.0    1.421565   1.743768
 1475.0    1.413894   1.772985
 1476.0    1.401426   1.802887
 1477.0    1.388957   1.832789
 1478.0    1.376488   1.862691
 1479.0    1.364019   1.892593
 1480.0    1.351550   1.922495
 1481.0    1.333651   1.952001
 1482.0    1.315752   1.981508
 1483.0    1.297853   2.011014
 1484.0    1.279953   2.040521
 1485.0    1.262054   2.070027
 1486.0    1.238390   2.097724
 1487.0    1.214725   2.125420
 1488.0    1.191061   2.153117
 1489.0    1.167397   2.180813
 1490.0    1.143733   2.208510
 1491.0    1.114454   2.232751
 1492.0    1.085175   2.256992
 1493.0    1.055896   2.281233
 1494.0    1.026618   2.305474
 1495.0    0.997339   2.329715
 1496.0    0.963214   2.348831
 1497.0    0.929088   2.367948
 1498.0    0.894963   2.387064
 1499.0    0.860837   2.406180
 1500.0    0.826712   2.425297
 1501.0    0.789146   2.437880
 1502.0    0.751580   2.450463
 1503.0    0.714015   2.463047
 1504.0    0.676449   2.475630
 1505.0    0.638883   2.488213
 1506.0    0.599785   2.493432
 1507.0    0.560687   2.498651
 1508.0    0.521589   2.503869
 1509.0    0.482490   2.509088
 1510.0    0.443392   2.514306
 1511.0    0.404868   2.512069
 1512.0    0.366343   2.509831
 1513.0    0.327819   2.507594
 1514.0    0.289294   2.505356
 1515.0    0.250770   2.503119
 1516.0    0.214773   2.494102
 1517.0    0.178776   2.485085
 1518.0    0.142779   2.476068
 1519.0    0.106783   2.467051
 1520.0    0.070786   2.458035
 1521.0    0.038810   2.443497
 1522.0    0.006834   2.428960
 1523.0   -0.025142   2.414423
 1524.0   -0.057118   2.399885
 1525.0   -0.089094   2.385348
 1526.0   -0.116164   2.366852
 1527.0   -0.143234   2.348355
 1528.0   -0.170303   2.329859
 1529.0   -0.197373   2.311362
 1530.0   -0.224442   2.292866
 1531.0   -0.246321   2.271991
 1532.0   -0.268201   2.251115
 1533.0   -0.290080   2.230239
 1534.0   -0.311959   2.209364
 1535.0   -0.333838   2.188488
 1536.0   -0.350724   2.166621
 1537.0   -0.367611   2.144755
 1538.0   -0.384497   2.122888
 1539.0   -0.401384   2.101021
 1540.0   -0.418270   2.079155
 1541.0   -0.430675   2.057385
 1542.0   -0.443080   2.035616
 1543.0   -0.455485   2.013847
 1544.0   -0.467890   1.992077
 1545.0   -0.480295   1.970308
 1546.0   -0.488887   1.949406
 1547.0   -0.497478   1.928505
 1548.0   -0.506070   1.907604
 1549.0   -0.514662   1.886702
 1550.0   -0.523253   1.865801
 1551.0   -0.528736   1.846253
 1552.0   -0.534219   1.826706
 1553.0   -0.539703   1.807158
 1554.0   -0.545186   1.787611
 1555.0   -0.550669   1.768063
 1556.0   -0.553704   1.750127
 1557.0   -0.556740   1.732191
 1558.0   -0.559776   1.714255
 1559.0   -0.562811   1.696318
 1560.0   -0.565847   1.678382
 1561.0   -0.567027   1.662157
 1562.0   -0.568206   1.645931
 1563.0   -0.569386   1.629705
 1564.0   -0.570566   1.613480
 1565.0   -0.571746   1.597254
 1566.0   -0.571560   1.582716
 1567.0   -0.571374   1.568178
 1568.0   -0.571189   1.553641
 1569.0   -0.571003   1.539103
 1570.0   -0.570817   1.524565
 1571.0   -0.569670   1.511629
 1572.0   -0.568522   1.498692
 1573.0   -0.567375   1.485756
 1574.0   -0.566227   1.472820
 1575.0   -0.565080   1.459884
 1576.0   -0.563291   1.448423
 1577.0   -0.561501   1.436962
 1578.0   -0.559712   1.425502
 1579.0   -0.557923   1.414041
 1580.0   -0.556133   1.402580
 1581.0   -0.553951   1.392446
 1582.0   -0.551769   1.382313
 1583.0   -0.549586   1.372179
 1584.0   -0.547404   1.362046
 1585.0   -0.545222   1.351912
 1586.0   -0.542837   1.342955
 1587.0   -0.540452   1.333998
 1588.0   -0.538068   1.325040
 1589.0   -0.535683   1.316083
 1590.0   -0.533299   1.307126
 1591.0   -0.530855   1.299196
 1592.0   -0.528412   1.291266
 1593.0   -0.525968   1.283336
 1594.0   -0.523525   1.275406
 1595.0   -0.521082   1.267476
 1596.0   -0.518684   1.260431
 1597.0   -0.516286   1.253386
 1598.0   -0.513888   1.246341
 1599.0   -0.511491   1.239296
 1600.0   -0.509093   1.232251
 1601.0   -0.506816   1.225958
 1602.0   -0.504540   1.219666
 1603.0   -0.502263   1.213374
 1604.0   -0.499987   1.207082
 1605.0   -0.497710   1.200790
 1606.0   -0.495606   1.195132
 1607.0   -0.493501   1.189474
 1608.0   -0.491396   1.183816
 1609.0   -0.489291   1.178158
 1610.0   -0.487187   1.172500
 1611.0   -0.485285   1.167366
 1612.0   -0.483384   1.162233
 1613.0   -0.481483   1.157099
 1614.0   -0.479582   1.151965
 1615.0   -0.477681   1.146832
 1616.0   -0.476000   1.142125
 1617.0   -0.474320   1.137419
 1618.0   -0.472639   1.132713
 1619.0   -0.470959   1.128006
 1620.0   -0.469278   1.123300
 1621.0   -0.467822   1.118934
 1622.0   -0.466366   1.114568
 1623.0   -0.464911   1.110202
 1624.0   -0.463455   1.105837
 1625.0   -0.461999   1.101471
 1626.0   -0.460763   1.097369
 1627.0   -0.459527   1.093267
 1628.0   -0.458291   1.089165
 1629.0   -0.457055   1.085064
 1630.0   -0.455819   1.080962
 1631.0   -0.454790   1.077057
 1632.0   -0.453761   1.073152
 1633.0   -0.452731   1.069248
 1634.0   -0.451702   1.065343
 1635.0   -0.450673   1.061438
 1636.0   -0.449830   1.057674
 1637.0   -0.448988   1.053909
 1638.0   -0.448145   1.050145
 1639.0   -0.447303   1.046380
 1640.0   -0.446461   1.042616
 1641.0   -0.445781   1.038943
 1642.0   -0.445101   1.035271
 1643.0   -0.444422   1.031598
 1644.0   -0.443742   1.027926
 1645.0   -0.443062   1.024254
 1646.0   -0.442513   1.020639
 1647.0   -0.441964   1.017025
 1648.0   -0.441414   1.013411
 1649.0   -0.440865   1.009797
 1650.0   -0.440315   1.006183
 1651.0   -0.439876   1.002585
 1652.0   -0.439438   0.998986
 1653.0   -0.438999   0.995388
 1654.0   -0.438560   0.991790
 1655.0   -0.438121   0.988192
 1656.0   -0.437747   0.984599
 1657.0   -0.437374   0.981005
 1658.0   -0.437001   0.977412
 1659.0   -0.436627   0.973818
 1660.0   -0.436254   0.970225
 1661.0   -0.435913   0.966622
 1662.0   -0.435572   0.963019
 1663.0   -0.435230   0.959416
 1664.0   -0.434889   0.955814
 1665.0   -0.434548   0.952211
 1666.0   -0.434235   0.948598
 1667.0   -0.433922   0.944986
 1668.0   -0.433609   0.941373
 1669.0   -0.433295   0.937761
 1670.0   -0.432982   0.934148
 1671.0   -0.432632   0.930521
 1672.0   -0.432282   0.926895
 1673.0   -0.431931   0.923268
 1674.0   -0.431581   0.919641
 1675.0   -0.431231   0.916014
 1676.0   -0.430830   0.912385
 1677.0   -0.430429   0.908756
 1678.0   -0.430028   0.905127
 1679.0   -0.429627   0.901498
 1680.0   -0.429226   0.897870
 1681.0   -0.428750   0.894253
 1682.0   -0.428273   0.890637
 1683.0   -0.427796   0.887020
 1684.0   -0.427320   0.883404
 1685.0   -0.426843   0.879788
 1686.0   -0.426271   0.876203
 1687.0   -0.425698   0.872619
 1688.0   -0.425125   0.869035
 1689.0   -0.424553   0.865451
 1690.0   -0.423980   0.861867
 1691.0   -0.423295   0.858337
 1692.0   -0.422610   0.854808
 1693.0   -0.421926   0.851279
 1694.0   -0.421241   0.847750
 1695.0   -0.420556   0.844220
 1696.0   -0.419747   0.840771
 1697.0   -0.418938   0.837321
 1698.0   -0.418129   0.833871
 1699.0   -0.417320   0.830422
 1700.0   -0.416511   0.826972
 1701.0   -0.415571   0.823628
 1702.0   -0.414630   0.820284
 1703.0   -0.413690   0.816940
 1704.0   -0.412749   0.813596
 1705.0   -0.411809   0.810251
 1706.0   -0.410733   0.807039
 1707.0   -0.409657   0.803827
 1708.0   -0.408581   0.800614
 1709.0   -0.407505   0.797402
 1710.0   -0.406429   0.794190
 1711.0   -0.405219   0.791131
 1712.0   -0.404008   0.788073
 1713.0   -0.402797   0.785015
 1714.0   -0.401587   0.781956
 1715.0   -0.400376   0.778898
 1716.0   -0.399033   0.776020
