   W         E3-(pi+_n)
 (MeV)      Re      Im
 1080.0    0.033   0.000
 1081.0    0.040   0.000
 1082.0    0.047   0.000
 1083.0    0.054   0.000
 1084.0    0.062   0.000
 1085.0    0.070   0.000
 1086.0    0.078   0.000
 1087.0    0.087   0.000
 1088.0    0.095   0.000
 1089.0    0.104   0.000
 1090.0    0.112   0.000
 1091.0    0.121   0.000
 1092.0    0.130   0.000
 1093.0    0.139   0.000
 1094.0    0.148   0.000
 1095.0    0.157   0.000
 1096.0    0.166   0.000
 1097.0    0.175   0.000
 1098.0    0.184   0.000
 1099.0    0.193   0.000
 1100.0    0.202   0.000
 1101.0    0.211   0.000
 1102.0    0.220   0.000
 1103.0    0.230   0.000
 1104.0    0.239   0.000
 1105.0    0.248   0.000
 1106.0    0.257   0.000
 1107.0    0.266   0.000
 1108.0    0.274   0.000
 1109.0    0.283   0.000
 1110.0    0.292   0.000
 1111.0    0.301   0.000
 1112.0    0.310   0.000
 1113.0    0.318   0.000
 1114.0    0.327   0.000
 1115.0    0.336   0.000
 1116.0    0.344   0.000
 1117.0    0.353   0.000
 1118.0    0.361   0.000
 1119.0    0.370   0.000
 1120.0    0.378   0.000
 1121.0    0.386   0.000
 1122.0    0.394   0.000
 1123.0    0.403   0.000
 1124.0    0.411   0.000
 1125.0    0.419   0.000
 1126.0    0.427   0.000
 1127.0    0.435   0.000
 1128.0    0.443   0.000
 1129.0    0.450   0.000
 1130.0    0.458   0.000
 1131.0    0.466   0.000
 1132.0    0.473   0.000
 1133.0    0.481   0.000
 1134.0    0.488   0.000
 1135.0    0.496   0.000
 1136.0    0.503   0.000
 1137.0    0.510   0.000
 1138.0    0.518   0.000
 1139.0    0.525   0.000
 1140.0    0.532   0.000
 1141.0    0.539   0.000
 1142.0    0.546   0.000
 1143.0    0.553   0.000
 1144.0    0.559   0.000
 1145.0    0.566   0.000
 1146.0    0.573   0.000
 1147.0    0.580   0.000
 1148.0    0.586   0.000
 1149.0    0.593   0.000
 1150.0    0.599   0.000
 1151.0    0.606   0.000
 1152.0    0.612   0.000
 1153.0    0.618   0.000
 1154.0    0.624   0.000
 1155.0    0.630   0.000
 1156.0    0.637   0.000
 1157.0    0.643   0.000
 1158.0    0.649   0.000
 1159.0    0.655   0.000
 1160.0    0.660   0.000
 1161.0    0.666   0.000
 1162.0    0.672   0.000
 1163.0    0.678   0.000
 1164.0    0.683   0.000
 1165.0    0.689   0.001
 1166.0    0.694   0.001
 1167.0    0.700   0.001
 1168.0    0.705   0.001
 1169.0    0.711   0.001
 1170.0    0.716   0.001
 1171.0    0.721   0.001
 1172.0    0.727   0.001
 1173.0    0.732   0.001
 1174.0    0.737   0.001
 1175.0    0.742   0.001
 1176.0    0.747   0.001
 1177.0    0.752   0.001
 1178.0    0.757   0.001
 1179.0    0.762   0.001
 1180.0    0.766   0.001
 1181.0    0.771   0.001
 1182.0    0.776   0.001
 1183.0    0.781   0.001
 1184.0    0.785   0.001
 1185.0    0.790   0.001
 1186.0    0.794   0.001
 1187.0    0.799   0.001
 1188.0    0.803   0.001
 1189.0    0.808   0.001
 1190.0    0.812   0.001
 1191.0    0.817   0.001
 1192.0    0.821   0.001
 1193.0    0.825   0.001
 1194.0    0.829   0.001
 1195.0    0.833   0.001
 1196.0    0.838   0.001
 1197.0    0.842   0.001
 1198.0    0.846   0.001
 1199.0    0.850   0.001
 1200.0    0.854   0.001
 1201.0    0.858   0.001
 1202.0    0.861   0.001
 1203.0    0.865   0.002
 1204.0    0.869   0.002
 1205.0    0.873   0.002
 1206.0    0.877   0.002
 1207.0    0.880   0.002
 1208.0    0.884   0.002
 1209.0    0.888   0.002
 1210.0    0.891   0.002
 1211.0    0.895   0.002
 1212.0    0.898   0.002
 1213.0    0.902   0.002
 1214.0    0.905   0.002
 1215.0    0.909   0.002
 1216.0    0.912   0.002
 1217.0    0.916   0.002
 1218.0    0.919   0.002
 1219.0    0.922   0.002
 1220.0    0.926   0.003
 1221.0    0.929   0.003
 1222.0    0.932   0.003
 1223.0    0.935   0.003
 1224.0    0.939   0.003
 1225.0    0.942   0.003
 1226.0    0.945   0.003
 1227.0    0.948   0.003
 1228.0    0.951   0.003
 1229.0    0.954   0.003
 1230.0    0.957   0.003
 1231.0    0.960   0.003
 1232.0    0.963   0.003
 1233.0    0.966   0.004
 1234.0    0.969   0.004
 1235.0    0.972   0.004
 1236.0    0.975   0.004
 1237.0    0.977   0.004
 1238.0    0.980   0.004
 1239.0    0.983   0.004
 1240.0    0.986   0.004
 1241.0    0.988   0.004
 1242.0    0.991   0.004
 1243.0    0.994   0.004
 1244.0    0.997   0.005
 1245.0    0.999   0.005
 1246.0    1.002   0.005
 1247.0    1.004   0.005
 1248.0    1.007   0.005
 1249.0    1.010   0.005
 1250.0    1.012   0.005
 1251.0    1.015   0.005
 1252.0    1.017   0.005
 1253.0    1.020   0.005
 1254.0    1.022   0.006
 1255.0    1.025   0.006
 1256.0    1.027   0.006
 1257.0    1.029   0.006
 1258.0    1.032   0.006
 1259.0    1.034   0.006
 1260.0    1.037   0.006
 1261.0    1.039   0.007
 1262.0    1.041   0.007
 1263.0    1.044   0.007
 1264.0    1.046   0.007
 1265.0    1.048   0.007
 1266.0    1.050   0.007
 1267.0    1.053   0.007
 1268.0    1.055   0.007
 1269.0    1.057   0.008
 1270.0    1.059   0.008
 1271.0    1.061   0.008
 1272.0    1.064   0.008
 1273.0    1.066   0.008
 1274.0    1.068   0.008
 1275.0    1.070   0.009
 1276.0    1.072   0.009
 1277.0    1.074   0.009
 1278.0    1.076   0.009
 1279.0    1.079   0.009
 1280.0    1.081   0.009
 1281.0    1.083   0.010
 1282.0    1.085   0.010
 1283.0    1.087   0.010
 1284.0    1.089   0.010
 1285.0    1.091   0.010
 1286.0    1.093   0.010
 1287.0    1.095   0.011
 1288.0    1.097   0.011
 1289.0    1.098   0.011
 1290.0    1.100   0.011
 1291.0    1.102   0.011
 1292.0    1.104   0.012
 1293.0    1.106   0.012
 1294.0    1.108   0.012
 1295.0    1.110   0.012
 1296.0    1.112   0.012
 1297.0    1.114   0.013
 1298.0    1.116   0.013
 1299.0    1.118   0.013
 1300.0    1.120   0.013
 1301.0    1.121   0.014
 1302.0    1.123   0.014
 1303.0    1.125   0.014
 1304.0    1.127   0.014
 1305.0    1.129   0.015
 1306.0    1.131   0.015
 1307.0    1.132   0.015
 1308.0    1.134   0.015
 1309.0    1.136   0.016
 1310.0    1.138   0.016
 1311.0    1.140   0.016
 1312.0    1.141   0.016
 1313.0    1.143   0.017
 1314.0    1.145   0.017
 1315.0    1.147   0.017
 1316.0    1.148   0.017
 1317.0    1.150   0.018
 1318.0    1.152   0.018
 1319.0    1.154   0.018
 1320.0    1.155   0.019
 1321.0    1.157   0.019
 1322.0    1.159   0.019
 1323.0    1.161   0.019
 1324.0    1.162   0.020
 1325.0    1.164   0.020
 1326.0    1.166   0.020
 1327.0    1.168   0.021
 1328.0    1.169   0.021
 1329.0    1.171   0.021
 1330.0    1.173   0.022
 1331.0    1.174   0.022
 1332.0    1.176   0.023
 1333.0    1.178   0.023
 1334.0    1.179   0.023
 1335.0    1.181   0.024
 1336.0    1.183   0.024
 1337.0    1.185   0.024
 1338.0    1.186   0.025
 1339.0    1.188   0.025
 1340.0    1.190   0.025
 1341.0    1.191   0.026
 1342.0    1.193   0.026
 1343.0    1.195   0.027
 1344.0    1.196   0.027
 1345.0    1.198   0.027
 1346.0    1.200   0.028
 1347.0    1.201   0.028
 1348.0    1.203   0.029
 1349.0    1.205   0.029
 1350.0    1.207   0.029
 1351.0    1.208   0.030
 1352.0    1.210   0.030
 1353.0    1.212   0.031
 1354.0    1.213   0.031
 1355.0    1.215   0.032
 1356.0    1.217   0.032
 1357.0    1.218   0.033
 1358.0    1.220   0.033
 1359.0    1.222   0.034
 1360.0    1.224   0.034
 1361.0    1.225   0.035
 1362.0    1.227   0.035
 1363.0    1.229   0.036
 1364.0    1.230   0.036
 1365.0    1.232   0.037
 1366.0    1.234   0.037
 1367.0    1.236   0.038
 1368.0    1.237   0.038
 1369.0    1.239   0.039
 1370.0    1.241   0.039
 1371.0    1.243   0.040
 1372.0    1.244   0.040
 1373.0    1.246   0.041
 1374.0    1.248   0.042
 1375.0    1.250   0.042
 1376.0    1.251   0.043
 1377.0    1.253   0.043
 1378.0    1.255   0.044
 1379.0    1.257   0.045
 1380.0    1.259   0.045
 1381.0    1.260   0.046
 1382.0    1.262   0.046
 1383.0    1.264   0.047
 1384.0    1.266   0.048
 1385.0    1.268   0.048
 1386.0    1.269   0.049
 1387.0    1.271   0.050
 1388.0    1.273   0.050
 1389.0    1.275   0.051
 1390.0    1.277   0.052
 1391.0    1.279   0.052
 1392.0    1.280   0.053
 1393.0    1.282   0.054
 1394.0    1.284   0.055
 1395.0    1.286   0.055
 1396.0    1.288   0.056
 1397.0    1.290   0.057
 1398.0    1.292   0.058
 1399.0    1.294   0.059
 1400.0    1.296   0.059
 1401.0    1.298   0.060
 1402.0    1.300   0.061
 1403.0    1.302   0.062
 1404.0    1.303   0.063
 1405.0    1.305   0.063
 1406.0    1.307   0.064
 1407.0    1.309   0.065
 1408.0    1.311   0.066
 1409.0    1.313   0.067
 1410.0    1.316   0.068
 1411.0    1.318   0.069
 1412.0    1.320   0.070
 1413.0    1.322   0.071
 1414.0    1.324   0.071
 1415.0    1.326   0.072
 1416.0    1.328   0.073
 1417.0    1.330   0.074
 1418.0    1.332   0.075
 1419.0    1.334   0.076
 1420.0    1.337   0.077
 1421.0    1.339   0.078
 1422.0    1.341   0.079
 1423.0    1.343   0.081
 1424.0    1.345   0.082
 1425.0    1.348   0.083
 1426.0    1.350   0.084
 1427.0    1.352   0.085
 1428.0    1.354   0.086
 1429.0    1.357   0.087
 1430.0    1.359   0.088
 1431.0    1.361   0.090
 1432.0    1.363   0.091
 1433.0    1.366   0.092
 1434.0    1.368   0.093
 1435.0    1.371   0.094
 1436.0    1.373   0.096
 1437.0    1.375   0.097
 1438.0    1.378   0.098
 1439.0    1.380   0.100
 1440.0    1.383   0.101
 1441.0    1.385   0.102
 1442.0    1.387   0.104
 1443.0    1.390   0.105
 1444.0    1.392   0.106
 1445.0    1.395   0.108
 1446.0    1.398   0.109
 1447.0    1.400   0.111
 1448.0    1.403   0.112
 1449.0    1.405   0.114
 1450.0    1.408   0.115
 1451.0    1.411   0.117
 1452.0    1.413   0.118
 1453.0    1.416   0.120
 1454.0    1.419   0.121
 1455.0    1.421   0.123
 1456.0    1.424   0.125
 1457.0    1.427   0.126
 1458.0    1.429   0.128
 1459.0    1.432   0.130
 1460.0    1.435   0.131
 1461.0    1.438   0.133
 1462.0    1.441   0.135
 1463.0    1.444   0.137
 1464.0    1.447   0.139
 1465.0    1.449   0.140
 1466.0    1.452   0.142
 1467.0    1.455   0.144
 1468.0    1.458   0.146
 1469.0    1.461   0.148
 1470.0    1.464   0.150
 1471.0    1.468   0.152
 1472.0    1.471   0.154
 1473.0    1.474   0.156
 1474.0    1.477   0.158
 1475.0    1.480   0.161
 1476.0    1.483   0.163
 1477.0    1.487   0.165
 1478.0    1.490   0.167
 1479.0    1.493   0.170
 1480.0    1.496   0.172
 1481.0    1.500   0.174
 1482.0    1.503   0.177
 1483.0    1.506   0.179
 1484.0    1.510   0.181
 1485.0    1.513   0.184
 1486.0    1.517   0.186
 1487.0    1.520   0.189
 1488.0    1.524   0.192
 1489.0    1.527   0.194
 1490.0    1.531   0.197
 1491.0    1.534   0.200
 1492.0    1.538   0.202
 1493.0    1.542   0.205
 1494.0    1.545   0.208
 1495.0    1.549   0.211
 1496.0    1.553   0.214
 1497.0    1.557   0.217
 1498.0    1.560   0.220
 1499.0    1.564   0.223
 1500.0    1.568   0.226
 1501.0    1.572   0.229
 1502.0    1.576   0.233
 1503.0    1.580   0.236
 1504.0    1.584   0.239
 1505.0    1.588   0.243
 1506.0    1.592   0.246
 1507.0    1.596   0.250
 1508.0    1.600   0.253
 1509.0    1.604   0.257
 1510.0    1.609   0.261
 1511.0    1.613   0.265
 1512.0    1.617   0.268
 1513.0    1.621   0.272
 1514.0    1.626   0.276
 1515.0    1.630   0.280
 1516.0    1.634   0.284
 1517.0    1.639   0.289
 1518.0    1.643   0.293
 1519.0    1.648   0.297
 1520.0    1.652   0.302
 1521.0    1.657   0.306
 1522.0    1.662   0.311
 1523.0    1.666   0.315
 1524.0    1.671   0.320
 1525.0    1.676   0.325
 1526.0    1.680   0.330
 1527.0    1.685   0.335
 1528.0    1.690   0.340
 1529.0    1.695   0.345
 1530.0    1.700   0.350
 1531.0    1.705   0.355
 1532.0    1.710   0.361
 1533.0    1.715   0.366
 1534.0    1.720   0.372
 1535.0    1.725   0.378
 1536.0    1.730   0.383
 1537.0    1.735   0.389
 1538.0    1.740   0.395
 1539.0    1.745   0.402
 1540.0    1.751   0.408
 1541.0    1.756   0.414
 1542.0    1.761   0.421
 1543.0    1.766   0.427
 1544.0    1.772   0.434
 1545.0    1.777   0.441
 1546.0    1.783   0.448
 1547.0    1.788   0.455
 1548.0    1.793   0.463
 1549.0    1.799   0.470
 1550.0    1.804   0.478
 1551.0    1.810   0.485
 1552.0    1.816   0.493
 1553.0    1.821   0.501
 1554.0    1.827   0.509
 1555.0    1.832   0.518
 1556.0    1.838   0.526
 1557.0    1.844   0.535
 1558.0    1.849   0.544
 1559.0    1.855   0.553
 1560.0    1.861   0.562
 1561.0    1.866   0.572
 1562.0    1.872   0.581
 1563.0    1.878   0.591
 1564.0    1.884   0.601
 1565.0    1.889   0.611
 1566.0    1.895   0.622
 1567.0    1.901   0.632
 1568.0    1.907   0.643
 1569.0    1.912   0.654
 1570.0    1.918   0.665
 1571.0    1.924   0.677
 1572.0    1.929   0.689
 1573.0    1.935   0.701
 1574.0    1.940   0.713
 1575.0    1.946   0.725
 1576.0    1.951   0.738
 1577.0    1.957   0.751
 1578.0    1.962   0.764
 1579.0    1.967   0.778
 1581.0    1.978   0.805
 1582.0    1.983   0.820
 1583.0    1.988   0.834
 1584.0    1.993   0.849
 1585.0    1.998   0.865
 1586.0    2.002   0.880
 1587.0    2.007   0.896
 1588.0    2.011   0.912
 1589.0    2.016   0.929
 1590.0    2.020   0.946
 1591.0    2.024   0.963
 1592.0    2.028   0.980
 1593.0    2.032   0.998
 1594.0    2.035   1.016
 1595.0    2.038   1.035
 1596.0    2.042   1.054
 1597.0    2.044   1.073
 1598.0    2.047   1.093
 1599.0    2.049   1.113
 1600.0    2.052   1.133
 1601.0    2.053   1.154
 1602.0    2.055   1.175
 1603.0    2.056   1.197
 1604.0    2.057   1.219
 1605.0    2.057   1.241
 1606.0    2.058   1.263
 1607.0    2.057   1.287
 1608.0    2.057   1.310
 1609.0    2.056   1.334
 1610.0    2.054   1.358
 1611.0    2.052   1.382
 1612.0    2.049   1.407
 1613.0    2.046   1.433
 1614.0    2.043   1.458
 1615.0    2.038   1.484
 1616.0    2.034   1.511
 1617.0    2.028   1.537
 1618.0    2.022   1.564
 1619.0    2.015   1.592
 1620.0    2.008   1.619
 1621.0    2.000   1.647
 1622.0    1.991   1.675
 1623.0    1.981   1.703
 1624.0    1.971   1.732
 1625.0    1.959   1.761
 1626.0    1.947   1.790
 1627.0    1.934   1.819
 1628.0    1.920   1.848
 1629.0    1.905   1.877
 1630.0    1.889   1.906
 1631.0    1.873   1.935
 1632.0    1.855   1.964
 1633.0    1.836   1.993
 1634.0    1.816   2.022
 1635.0    1.795   2.051
 1636.0    1.773   2.080
 1637.0    1.750   2.108
 1638.0    1.726   2.136
 1639.0    1.701   2.164
 1640.0    1.675   2.191
 1641.0    1.648   2.218
 1642.0    1.619   2.244
 1643.0    1.590   2.270
 1644.0    1.560   2.295
 1645.0    1.528   2.319
 1646.0    1.495   2.343
 1647.0    1.462   2.366
 1648.0    1.427   2.388
 1649.0    1.392   2.409
 1650.0    1.355   2.429
 1651.0    1.318   2.448
 1652.0    1.280   2.466
 1653.0    1.241   2.483
 1654.0    1.201   2.498
 1655.0    1.161   2.513
 1656.0    1.120   2.526
 1657.0    1.078   2.538
 1658.0    1.036   2.548
 1659.0    0.994   2.557
 1660.0    0.951   2.565
 1661.0    0.908   2.571
 1662.0    0.864   2.576
 1663.0    0.820   2.579
 1664.0    0.777   2.581
 1665.0    0.733   2.582
 1666.0    0.689   2.580
 1667.0    0.646   2.578
 1668.0    0.602   2.574
 1669.0    0.559   2.569
 1670.0    0.517   2.562
 1671.0    0.474   2.554
 1672.0    0.433   2.544
 1673.0    0.391   2.533
 1674.0    0.351   2.521
 1675.0    0.311   2.508
 1676.0    0.271   2.493
 1677.0    0.233   2.477
 1678.0    0.195   2.460
 1679.0    0.158   2.443
 1680.0    0.122   2.424
 1681.0    0.087   2.404
 1682.0    0.053   2.383
 1683.0    0.020   2.362
 1684.0   -0.012   2.339
 1685.0   -0.043   2.316
 1686.0   -0.073   2.293
 1687.0   -0.102   2.269
 1688.0   -0.129   2.244
 1689.0   -0.156   2.218
 1690.0   -0.182   2.193
 1691.0   -0.206   2.167
 1692.0   -0.230   2.140
 1693.0   -0.252   2.114
 1694.0   -0.274   2.087
 1695.0   -0.294   2.060
 1696.0   -0.314   2.033
 1697.0   -0.332   2.006
 1698.0   -0.350   1.978
 1699.0   -0.366   1.951
 1700.0   -0.381   1.924
 1701.0   -0.396   1.897
 1702.0   -0.410   1.870
 1703.0   -0.423   1.843
 1704.0   -0.435   1.817
 1705.0   -0.446   1.790
 1706.0   -0.456   1.764
 1707.0   -0.466   1.738
 1708.0   -0.475   1.712
 1709.0   -0.483   1.687
 1710.0   -0.491   1.661
 1711.0   -0.498   1.636
 1712.0   -0.504   1.612
 1713.0   -0.510   1.587
 1714.0   -0.515   1.564
 1715.0   -0.520   1.540
 1716.0   -0.524   1.517
 1717.0   -0.527   1.494
 1718.0   -0.530   1.471
 1719.0   -0.533   1.449
 1720.0   -0.535   1.427
 1721.0   -0.537   1.406
 1722.0   -0.539   1.384
 1723.0   -0.540   1.364
 1724.0   -0.540   1.343
 1725.0   -0.541   1.323
 1726.0   -0.541   1.304
 1727.0   -0.541   1.284
 1728.0   -0.540   1.265
 1729.0   -0.540   1.247
 1730.0   -0.539   1.229
 1731.0   -0.537   1.211
 1732.0   -0.536   1.194
 1733.0   -0.534   1.176
 1734.0   -0.533   1.160
 1735.0   -0.531   1.143
 1736.0   -0.529   1.127
 1737.0   -0.526   1.111
 1738.0   -0.524   1.096
 1739.0   -0.522   1.081
 1740.0   -0.519   1.066
 1741.0   -0.516   1.051
 1742.0   -0.513   1.037
 1743.0   -0.510   1.023
 1744.0   -0.507   1.009
 1745.0   -0.504   0.996
 1746.0   -0.501   0.983
 1747.0   -0.498   0.970
 1748.0   -0.495   0.957
 1749.0   -0.491   0.945
 1750.0   -0.488   0.932
 1751.0   -0.485   0.920
 1752.0   -0.481   0.909
 1753.0   -0.478   0.897
 1754.0   -0.475   0.886
 1755.0   -0.471   0.875
 1756.0   -0.468   0.864
 1757.0   -0.464   0.853
 1758.0   -0.461   0.843
 1759.0   -0.457   0.833
 1760.0   -0.454   0.823
 1761.0   -0.450   0.813
 1762.0   -0.447   0.803
 1763.0   -0.443   0.793
 1764.0   -0.440   0.784
 1765.0   -0.437   0.774
 1766.0   -0.433   0.765
 1767.0   -0.430   0.756
 1768.0   -0.426   0.747
 1769.0   -0.423   0.739
 1770.0   -0.420   0.730
 1771.0   -0.416   0.722
 1772.0   -0.413   0.713
 1773.0   -0.410   0.705
 1774.0   -0.407   0.697
 1775.0   -0.403   0.689
 1776.0   -0.400   0.681
 1777.0   -0.397   0.673
 1778.0   -0.394   0.665
 1779.0   -0.391   0.658
 1780.0   -0.388   0.650
 1781.0   -0.384   0.643
 1782.0   -0.381   0.635
 1783.0   -0.378   0.628
 1784.0   -0.375   0.621
 1785.0   -0.372   0.614
 1786.0   -0.369   0.606
 1787.0   -0.366   0.599
 1788.0   -0.363   0.592
 1789.0   -0.360   0.585
 1790.0   -0.357   0.579
 1791.0   -0.354   0.572
 1792.0   -0.350   0.565
 1793.0   -0.347   0.558
 1794.0   -0.344   0.552
 1795.0   -0.341   0.545
 1796.0   -0.338   0.539
 1797.0   -0.335   0.532
 1798.0   -0.332   0.526
 1799.0   -0.329   0.520
 1800.0   -0.326   0.513
 1801.0   -0.323   0.507
 1802.0   -0.320   0.501
 1803.0   -0.317   0.495
 1804.0   -0.313   0.489
 1805.0   -0.310   0.483
 1806.0   -0.307   0.477
 1807.0   -0.304   0.471
 1808.0   -0.301   0.465
 1809.0   -0.298   0.459
 1810.0   -0.294   0.453
 1811.0   -0.291   0.448
 1812.0   -0.288   0.442
 1813.0   -0.285   0.436
 1814.0   -0.282   0.431
 1815.0   -0.278   0.425
 1816.0   -0.275   0.420
 1817.0   -0.272   0.414
 1818.0   -0.268   0.409
 1819.0   -0.265   0.404
 1820.0   -0.262   0.399
 1821.0   -0.258   0.393
 1822.0   -0.255   0.388
 1823.0   -0.252   0.383
 1824.0   -0.248   0.378
 1825.0   -0.245   0.373
 1826.0   -0.241   0.368
 1827.0   -0.238   0.363
 1828.0   -0.234   0.359
 1829.0   -0.231   0.354
 1830.0   -0.227   0.349
 1831.0   -0.224   0.345
 1832.0   -0.220   0.340
 1833.0   -0.217   0.336
 1834.0   -0.213   0.331
 1835.0   -0.210   0.327
 1836.0   -0.206   0.322
 1837.0   -0.203   0.318
 1838.0   -0.199   0.314
 1839.0   -0.196   0.310
 1840.0   -0.192   0.306
 1841.0   -0.188   0.302
 1842.0   -0.185   0.298
 1843.0   -0.181   0.294
 1844.0   -0.178   0.290
 1845.0   -0.174   0.286
 1846.0   -0.170   0.282
 1847.0   -0.167   0.278
 1848.0   -0.163   0.275
 1849.0   -0.160   0.271
 1850.0   -0.156   0.267
 1851.0   -0.152   0.264
 1852.0   -0.149   0.260
 1853.0   -0.145   0.257
 1854.0   -0.142   0.254
 1855.0   -0.138   0.250
 1856.0   -0.134   0.247
 1857.0   -0.131   0.244
 1858.0   -0.127   0.241
 1859.0   -0.124   0.238
 1860.0   -0.120   0.235
 1861.0   -0.116   0.232
 1862.0   -0.113   0.229
 1863.0   -0.109   0.226
 1864.0   -0.106   0.223
 1865.0   -0.102   0.220
 1866.0   -0.099   0.217
 1867.0   -0.095   0.215
 1868.0   -0.092   0.212
 1869.0   -0.088   0.209
 1870.0   -0.085   0.207
 1871.0   -0.081   0.204
 1872.0   -0.078   0.202
 1873.0   -0.074   0.199
 1874.0   -0.071   0.197
 1875.0   -0.068   0.194
 1876.0   -0.064   0.192
 1877.0   -0.061   0.190
 1878.0   -0.057   0.188
