   W         M1-(pi+_n)
 (MeV)      Re      Im
 1080.0    1.798  -0.003
 1081.0    1.918  -0.003
 1082.0    2.028  -0.004
 1083.0    2.131  -0.005
 1084.0    2.228  -0.005
 1085.0    2.319  -0.006
 1086.0    2.404  -0.007
 1087.0    2.486  -0.008
 1088.0    2.563  -0.009
 1089.0    2.637  -0.010
 1090.0    2.707  -0.011
 1091.0    2.774  -0.012
 1092.0    2.839  -0.013
 1093.0    2.901  -0.015
 1094.0    2.961  -0.016
 1095.0    3.018  -0.018
 1096.0    3.073  -0.019
 1097.0    3.127  -0.021
 1098.0    3.178  -0.022
 1099.0    3.228  -0.024
 1100.0    3.276  -0.025
 1101.0    3.323  -0.027
 1102.0    3.368  -0.029
 1103.0    3.412  -0.030
 1104.0    3.454  -0.032
 1105.0    3.495  -0.034
 1106.0    3.535  -0.036
 1107.0    3.574  -0.038
 1108.0    3.612  -0.040
 1109.0    3.649  -0.041
 1110.0    3.684  -0.043
 1111.0    3.719  -0.045
 1112.0    3.753  -0.047
 1113.0    3.786  -0.049
 1114.0    3.818  -0.052
 1115.0    3.849  -0.054
 1116.0    3.879  -0.056
 1117.0    3.909  -0.058
 1118.0    3.938  -0.060
 1119.0    3.966  -0.062
 1120.0    3.993  -0.064
 1121.0    4.020  -0.066
 1122.0    4.046  -0.069
 1123.0    4.072  -0.071
 1124.0    4.097  -0.073
 1125.0    4.121  -0.075
 1126.0    4.145  -0.077
 1127.0    4.169  -0.079
 1128.0    4.191  -0.082
 1129.0    4.214  -0.084
 1130.0    4.235  -0.086
 1131.0    4.257  -0.088
 1132.0    4.278  -0.090
 1133.0    4.298  -0.093
 1134.0    4.318  -0.095
 1135.0    4.337  -0.097
 1136.0    4.357  -0.099
 1137.0    4.375  -0.102
 1138.0    4.394  -0.104
 1139.0    4.412  -0.106
 1140.0    4.429  -0.109
 1141.0    4.446  -0.111
 1142.0    4.463  -0.113
 1143.0    4.480  -0.115
 1144.0    4.496  -0.118
 1145.0    4.512  -0.120
 1146.0    4.528  -0.122
 1147.0    4.543  -0.124
 1148.0    4.558  -0.127
 1149.0    4.573  -0.129
 1150.0    4.587  -0.131
 1151.0    4.601  -0.133
 1152.0    4.615  -0.135
 1153.0    4.629  -0.137
 1154.0    4.642  -0.140
 1155.0    4.655  -0.142
 1156.0    4.668  -0.144
 1157.0    4.681  -0.146
 1158.0    4.694  -0.148
 1159.0    4.706  -0.150
 1160.0    4.718  -0.152
 1161.0    4.730  -0.154
 1162.0    4.742  -0.156
 1163.0    4.753  -0.158
 1164.0    4.764  -0.160
 1165.0    4.776  -0.162
 1166.0    4.786  -0.164
 1167.0    4.797  -0.166
 1168.0    4.808  -0.168
 1169.0    4.818  -0.170
 1170.0    4.829  -0.172
 1171.0    4.839  -0.174
 1172.0    4.849  -0.175
 1173.0    4.858  -0.177
 1174.0    4.868  -0.179
 1175.0    4.878  -0.181
 1176.0    4.887  -0.182
 1177.0    4.896  -0.184
 1178.0    4.906  -0.186
 1179.0    4.915  -0.187
 1180.0    4.924  -0.189
 1181.0    4.932  -0.191
 1182.0    4.941  -0.192
 1183.0    4.950  -0.194
 1184.0    4.958  -0.195
 1185.0    4.967  -0.197
 1186.0    4.975  -0.198
 1187.0    4.983  -0.200
 1188.0    4.991  -0.201
 1189.0    4.999  -0.202
 1190.0    5.007  -0.204
 1191.0    5.015  -0.204
 1192.0    5.023  -0.205
 1193.0    5.030  -0.205
 1194.0    5.038  -0.205
 1195.0    5.045  -0.197
 1196.0    5.053  -0.228
 1197.0    5.060  -0.216
 1198.0    5.068  -0.215
 1199.0    5.075  -0.214
 1200.0    5.082  -0.214
 1201.0    5.089  -0.214
 1202.0    5.096  -0.214
 1203.0    5.103  -0.214
 1204.0    5.110  -0.214
 1205.0    5.117  -0.215
 1206.0    5.124  -0.215
 1207.0    5.131  -0.216
 1208.0    5.138  -0.217
 1209.0    5.145  -0.218
 1210.0    5.152  -0.219
 1211.0    5.158  -0.221
 1212.0    5.165  -0.222
 1213.0    5.172  -0.223
 1214.0    5.178  -0.224
 1215.0    5.185  -0.225
 1216.0    5.191  -0.225
 1217.0    5.198  -0.224
 1218.0    5.205  -0.223
 1219.0    5.211  -0.221
 1220.0    5.217  -0.219
 1221.0    5.224  -0.216
 1222.0    5.230  -0.213
 1223.0    5.237  -0.209
 1224.0    5.243  -0.205
 1225.0    5.249  -0.201
 1226.0    5.255  -0.197
 1227.0    5.262  -0.192
 1228.0    5.268  -0.188
 1229.0    5.274  -0.185
 1230.0    5.280  -0.181
 1231.0    5.286  -0.177
 1232.0    5.293  -0.174
 1233.0    5.299  -0.171
 1234.0    5.305  -0.168
 1235.0    5.311  -0.165
 1236.0    5.317  -0.162
 1237.0    5.323  -0.159
 1238.0    5.329  -0.156
 1239.0    5.336  -0.153
 1240.0    5.342  -0.149
 1241.0    5.348  -0.146
 1242.0    5.354  -0.142
 1243.0    5.360  -0.138
 1244.0    5.366  -0.134
 1245.0    5.372  -0.129
 1246.0    5.378  -0.125
 1247.0    5.384  -0.120
 1248.0    5.390  -0.115
 1249.0    5.396  -0.109
 1250.0    5.402  -0.104
 1251.0    5.409  -0.098
 1252.0    5.415  -0.092
 1253.0    5.421  -0.086
 1254.0    5.427  -0.080
 1255.0    5.433  -0.073
 1256.0    5.439  -0.067
 1257.0    5.445  -0.060
 1258.0    5.451  -0.053
 1259.0    5.457  -0.046
 1260.0    5.463  -0.038
 1261.0    5.469  -0.031
 1262.0    5.474  -0.023
 1263.0    5.480  -0.015
 1264.0    5.486  -0.007
 1265.0    5.491   0.001
 1266.0    5.497   0.010
 1267.0    5.503   0.019
 1268.0    5.508   0.028
 1269.0    5.514   0.037
 1270.0    5.519   0.047
 1271.0    5.525   0.057
 1272.0    5.530   0.067
 1273.0    5.536   0.077
 1274.0    5.541   0.087
 1275.0    5.546   0.098
 1276.0    5.552   0.109
 1277.0    5.557   0.121
 1278.0    5.562   0.132
 1279.0    5.567   0.144
 1280.0    5.572   0.156
 1281.0    5.577   0.169
 1282.0    5.582   0.181
 1283.0    5.586   0.194
 1284.0    5.591   0.207
 1285.0    5.595   0.221
 1286.0    5.600   0.235
 1287.0    5.604   0.249
 1288.0    5.608   0.264
 1289.0    5.612   0.279
 1290.0    5.615   0.294
 1291.0    5.619   0.310
 1292.0    5.622   0.326
 1293.0    5.625   0.342
 1294.0    5.628   0.359
 1295.0    5.631   0.376
 1296.0    5.634   0.393
 1297.0    5.636   0.411
 1298.0    5.638   0.429
 1299.0    5.640   0.447
 1300.0    5.642   0.466
 1301.0    5.643   0.484
 1302.0    5.645   0.503
 1303.0    5.646   0.523
 1304.0    5.646   0.542
 1305.0    5.647   0.562
 1306.0    5.647   0.583
 1307.0    5.647   0.603
 1308.0    5.647   0.624
 1309.0    5.646   0.646
 1310.0    5.645   0.667
 1311.0    5.643   0.690
 1312.0    5.641   0.712
 1313.0    5.639   0.735
 1314.0    5.637   0.758
 1315.0    5.634   0.782
 1316.0    5.630   0.806
 1317.0    5.627   0.830
 1318.0    5.622   0.855
 1319.0    5.618   0.879
 1320.0    5.613   0.905
 1321.0    5.607   0.930
 1322.0    5.601   0.956
 1323.0    5.595   0.981
 1324.0    5.588   1.008
 1325.0    5.580   1.034
 1326.0    5.572   1.061
 1327.0    5.564   1.088
 1328.0    5.554   1.115
 1329.0    5.545   1.143
 1330.0    5.534   1.171
 1331.0    5.523   1.199
 1332.0    5.511   1.228
 1333.0    5.499   1.256
 1334.0    5.486   1.285
 1335.0    5.472   1.315
 1336.0    5.458   1.344
 1337.0    5.443   1.373
 1338.0    5.428   1.403
 1339.0    5.411   1.433
 1340.0    5.395   1.462
 1341.0    5.377   1.492
 1342.0    5.359   1.522
 1343.0    5.340   1.551
 1344.0    5.321   1.581
 1345.0    5.301   1.611
 1346.0    5.280   1.640
 1347.0    5.258   1.670
 1348.0    5.236   1.700
 1349.0    5.213   1.729
 1350.0    5.190   1.759
 1351.0    5.165   1.788
 1352.0    5.140   1.817
 1353.0    5.114   1.846
 1354.0    5.088   1.875
 1355.0    5.060   1.904
 1356.0    5.032   1.933
 1357.0    5.004   1.961
 1358.0    4.974   1.989
 1359.0    4.944   2.017
 1360.0    4.914   2.044
 1361.0    4.882   2.072
 1362.0    4.850   2.099
 1363.0    4.818   2.125
 1364.0    4.785   2.151
 1365.0    4.751   2.177
 1366.0    4.717   2.202
 1367.0    4.682   2.227
 1368.0    4.647   2.251
 1369.0    4.611   2.274
 1370.0    4.575   2.297
 1371.0    4.539   2.320
 1372.0    4.502   2.341
 1373.0    4.464   2.363
 1374.0    4.427   2.383
 1375.0    4.389   2.403
 1376.0    4.351   2.422
 1377.0    4.312   2.441
 1378.0    4.273   2.459
 1379.0    4.234   2.476
 1380.0    4.195   2.493
 1381.0    4.155   2.509
 1382.0    4.115   2.525
 1383.0    4.075   2.539
 1384.0    4.035   2.553
 1385.0    3.995   2.567
 1386.0    3.955   2.580
 1387.0    3.914   2.592
 1388.0    3.874   2.603
 1389.0    3.833   2.614
 1390.0    3.793   2.624
 1391.0    3.752   2.634
 1392.0    3.711   2.643
 1393.0    3.671   2.651
 1394.0    3.630   2.659
 1395.0    3.590   2.666
 1396.0    3.550   2.672
 1397.0    3.510   2.678
 1398.0    3.470   2.683
 1399.0    3.430   2.687
 1400.0    3.390   2.691
 1401.0    3.351   2.694
 1402.0    3.312   2.696
 1403.0    3.273   2.698
 1404.0    3.234   2.699
 1405.0    3.196   2.700
 1406.0    3.158   2.700
 1407.0    3.120   2.700
 1408.0    3.082   2.699
 1409.0    3.045   2.697
 1410.0    3.007   2.696
 1411.0    2.970   2.693
 1412.0    2.934   2.691
 1413.0    2.898   2.688
 1414.0    2.861   2.684
 1415.0    2.826   2.680
 1416.0    2.790   2.675
 1417.0    2.755   2.671
 1418.0    2.721   2.665
 1419.0    2.686   2.660
 1420.0    2.652   2.654
 1421.0    2.619   2.647
 1422.0    2.586   2.641
 1423.0    2.553   2.634
 1424.0    2.520   2.626
 1425.0    2.488   2.619
 1426.0    2.456   2.611
 1427.0    2.425   2.602
 1428.0    2.394   2.594
 1429.0    2.363   2.585
 1430.0    2.333   2.576
 1431.0    2.303   2.567
 1432.0    2.273   2.558
 1433.0    2.243   2.548
 1434.0    2.214   2.539
 1435.0    2.185   2.529
 1436.0    2.157   2.519
 1437.0    2.128   2.508
 1438.0    2.100   2.498
 1439.0    2.073   2.487
 1440.0    2.045   2.477
 1441.0    2.018   2.466
 1442.0    1.992   2.455
 1443.0    1.965   2.444
 1444.0    1.939   2.433
 1445.0    1.913   2.422
 1446.0    1.888   2.410
 1447.0    1.863   2.399
 1448.0    1.838   2.388
 1449.0    1.813   2.376
 1450.0    1.789   2.364
 1451.0    1.765   2.353
 1452.0    1.742   2.341
 1453.0    1.718   2.329
 1454.0    1.695   2.317
 1455.0    1.673   2.305
 1456.0    1.650   2.293
 1457.0    1.628   2.281
 1458.0    1.606   2.269
 1459.0    1.584   2.257
 1460.0    1.563   2.245
 1461.0    1.542   2.233
 1462.0    1.521   2.221
 1463.0    1.500   2.209
 1464.0    1.479   2.197
 1465.0    1.459   2.185
 1466.0    1.439   2.174
 1467.0    1.419   2.162
 1468.0    1.399   2.150
 1469.0    1.379   2.138
 1470.0    1.359   2.126
 1471.0    1.340   2.115
 1472.0    1.321   2.103
 1473.0    1.301   2.092
 1474.0    1.282   2.080
 1475.0    1.264   2.069
 1476.0    1.245   2.057
 1477.0    1.226   2.046
 1478.0    1.208   2.035
 1479.0    1.190   2.023
 1480.0    1.172   2.012
 1481.0    1.154   2.001
 1482.0    1.137   1.990
 1483.0    1.119   1.979
 1484.0    1.102   1.968
 1485.0    1.085   1.957
 1486.0    1.068   1.946
 1487.0    1.052   1.935
 1488.0    1.035   1.924
 1489.0    1.019   1.913
 1490.0    1.003   1.903
 1491.0    0.987   1.892
 1492.0    0.971   1.882
 1493.0    0.955   1.871
 1494.0    0.939   1.861
 1495.0    0.924   1.850
 1496.0    0.908   1.840
 1497.0    0.893   1.830
 1498.0    0.878   1.820
 1499.0    0.862   1.810
 1500.0    0.847   1.800
 1501.0    0.832   1.790
 1502.0    0.817   1.781
 1503.0    0.802   1.771
 1504.0    0.788   1.761
 1505.0    0.773   1.752
 1506.0    0.758   1.743
 1507.0    0.744   1.733
 1508.0    0.730   1.724
 1509.0    0.716   1.715
 1510.0    0.702   1.706
 1511.0    0.688   1.696
 1512.0    0.674   1.687
 1513.0    0.661   1.678
 1514.0    0.647   1.670
 1515.0    0.634   1.661
 1516.0    0.621   1.652
 1517.0    0.608   1.643
 1518.0    0.594   1.635
 1519.0    0.581   1.627
 1520.0    0.568   1.618
 1521.0    0.555   1.610
 1522.0    0.541   1.602
 1523.0    0.528   1.594
 1524.0    0.514   1.586
 1525.0    0.501   1.578
 1526.0    0.488   1.571
 1527.0    0.474   1.563
 1528.0    0.461   1.555
 1529.0    0.448   1.548
 1530.0    0.435   1.540
 1531.0    0.423   1.533
 1532.0    0.410   1.526
 1533.0    0.398   1.518
 1534.0    0.386   1.511
 1535.0    0.373   1.504
 1536.0    0.361   1.497
 1537.0    0.349   1.490
 1538.0    0.337   1.483
 1539.0    0.325   1.476
 1540.0    0.313   1.470
 1541.0    0.301   1.463
 1542.0    0.289   1.456
 1543.0    0.277   1.450
 1544.0    0.265   1.443
 1545.0    0.253   1.437
 1546.0    0.242   1.431
 1547.0    0.230   1.425
 1548.0    0.218   1.419
 1549.0    0.206   1.412
 1550.0    0.194   1.407
 1551.0    0.182   1.401
 1552.0    0.171   1.395
 1553.0    0.159   1.389
 1554.0    0.147   1.383
 1555.0    0.135   1.378
 1556.0    0.124   1.372
 1557.0    0.112   1.367
 1558.0    0.101   1.361
 1559.0    0.089   1.356
 1560.0    0.078   1.351
 1561.0    0.067   1.346
 1562.0    0.055   1.340
 1563.0    0.044   1.335
 1564.0    0.033   1.330
 1565.0    0.022   1.325
 1566.0    0.011   1.321
 1567.0    0.000   1.316
 1568.0   -0.011   1.311
 1569.0   -0.022   1.306
 1570.0   -0.034   1.302
 1571.0   -0.045   1.297
 1572.0   -0.056   1.293
 1573.0   -0.067   1.288
 1574.0   -0.078   1.284
 1575.0   -0.090   1.280
 1576.0   -0.101   1.275
 1577.0   -0.112   1.271
 1578.0   -0.123   1.267
 1579.0   -0.134   1.263
 1580.0   -0.145   1.259
 1581.0   -0.156   1.255
 1582.0   -0.167   1.251
 1583.0   -0.178   1.248
 1584.0   -0.189   1.244
 1585.0   -0.200   1.240
 1586.0   -0.210   1.236
 1587.0   -0.221   1.233
 1588.0   -0.232   1.229
 1589.0   -0.243   1.226
 1590.0   -0.253   1.222
 1591.0   -0.264   1.219
 1592.0   -0.275   1.216
 1593.0   -0.286   1.213
 1594.0   -0.296   1.209
 1595.0   -0.307   1.206
 1596.0   -0.318   1.203
 1597.0   -0.329   1.200
 1598.0   -0.339   1.197
 1599.0   -0.350   1.194
 1600.0   -0.361   1.191
 1601.0   -0.372   1.189
 1602.0   -0.383   1.186
 1603.0   -0.394   1.184
 1604.0   -0.405   1.181
 1605.0   -0.416   1.179
 1606.0   -0.427   1.176
 1607.0   -0.438   1.174
 1608.0   -0.449   1.171
 1609.0   -0.460   1.169
 1610.0   -0.471   1.167
 1611.0   -0.482   1.164
 1612.0   -0.493   1.162
 1613.0   -0.503   1.160
 1614.0   -0.514   1.157
 1615.0   -0.524   1.155
 1616.0   -0.535   1.153
 1617.0   -0.545   1.151
 1618.0   -0.556   1.149
 1619.0   -0.566   1.147
 1620.0   -0.577   1.145
 1621.0   -0.587   1.143
 1622.0   -0.597   1.141
 1623.0   -0.607   1.139
 1624.0   -0.618   1.137
 1625.0   -0.628   1.135
 1626.0   -0.638   1.133
 1627.0   -0.648   1.131
 1628.0   -0.658   1.129
 1629.0   -0.668   1.127
 1630.0   -0.678   1.125
 1631.0   -0.688   1.124
 1632.0   -0.697   1.122
 1633.0   -0.707   1.120
 1634.0   -0.717   1.118
 1635.0   -0.727   1.116
 1636.0   -0.736   1.114
 1637.0   -0.746   1.112
 1638.0   -0.755   1.110
 1639.0   -0.765   1.109
 1640.0   -0.774   1.107
 1641.0   -0.784   1.105
 1642.0   -0.793   1.103
 1643.0   -0.802   1.102
 1644.0   -0.812   1.100
 1645.0   -0.821   1.098
 1646.0   -0.830   1.097
 1647.0   -0.839   1.095
 1648.0   -0.849   1.093
 1649.0   -0.858   1.092
 1650.0   -0.867   1.090
 1651.0   -0.876   1.088
 1652.0   -0.885   1.087
 1653.0   -0.893   1.085
 1654.0   -0.902   1.083
 1655.0   -0.910   1.081
 1656.0   -0.919   1.079
 1657.0   -0.927   1.077
 1658.0   -0.936   1.076
 1659.0   -0.944   1.074
 1660.0   -0.952   1.072
 1661.0   -0.960   1.070
 1662.0   -0.969   1.068
 1663.0   -0.977   1.066
 1664.0   -0.985   1.065
 1665.0   -0.993   1.063
 1666.0   -1.001   1.061
 1667.0   -1.010   1.059
 1668.0   -1.018   1.058
 1669.0   -1.026   1.056
 1670.0   -1.034   1.054
 1671.0   -1.042   1.053
 1672.0   -1.050   1.051
 1673.0   -1.058   1.049
 1674.0   -1.066   1.048
 1675.0   -1.074   1.046
 1676.0   -1.082   1.044
 1677.0   -1.090   1.043
 1678.0   -1.097   1.041
 1679.0   -1.105   1.039
 1680.0   -1.112   1.037
 1681.0   -1.120   1.035
 1682.0   -1.127   1.033
 1683.0   -1.134   1.031
 1684.0   -1.140   1.029
 1685.0   -1.147   1.027
 1686.0   -1.154   1.025
 1687.0   -1.160   1.023
 1688.0   -1.167   1.021
 1689.0   -1.173   1.019
 1690.0   -1.180   1.017
 1691.0   -1.186   1.015
 1692.0   -1.193   1.013
 1693.0   -1.200   1.011
 1694.0   -1.206   1.008
 1695.0   -1.213   1.006
 1696.0   -1.219   1.004
 1697.0   -1.225   1.002
 1698.0   -1.231   1.000
 1699.0   -1.237   0.998
 1700.0   -1.243   0.996
 1701.0   -1.249   0.993
 1702.0   -1.254   0.991
 1703.0   -1.259   0.988
 1704.0   -1.265   0.986
 1705.0   -1.270   0.984
 1706.0   -1.275   0.981
 1707.0   -1.279   0.979
 1708.0   -1.284   0.976
 1709.0   -1.289   0.974
 1710.0   -1.294   0.971
 1711.0   -1.298   0.968
 1712.0   -1.303   0.966
 1713.0   -1.308   0.963
 1714.0   -1.313   0.961
 1715.0   -1.317   0.958
 1716.0   -1.322   0.956
 1717.0   -1.327   0.953
 1718.0   -1.331   0.951
 1719.0   -1.336   0.948
 1720.0   -1.340   0.946
 1721.0   -1.344   0.943
 1722.0   -1.348   0.940
 1723.0   -1.353   0.938
 1724.0   -1.356   0.935
 1725.0   -1.360   0.932
 1726.0   -1.364   0.929
 1727.0   -1.368   0.927
 1728.0   -1.371   0.924
 1729.0   -1.375   0.921
 1730.0   -1.379   0.918
 1731.0   -1.382   0.915
 1732.0   -1.385   0.912
 1733.0   -1.389   0.910
 1734.0   -1.392   0.907
 1735.0   -1.395   0.904
 1736.0   -1.398   0.901
 1737.0   -1.401   0.898
 1738.0   -1.404   0.895
 1739.0   -1.407   0.892
 1740.0   -1.410   0.889
 1741.0   -1.413   0.886
 1742.0   -1.416   0.883
 1743.0   -1.418   0.880
 1744.0   -1.421   0.877
 1745.0   -1.424   0.874
 1746.0   -1.426   0.871
 1747.0   -1.428   0.868
 1748.0   -1.431   0.865
 1749.0   -1.433   0.861
 1750.0   -1.435   0.858
 1751.0   -1.437   0.855
 1752.0   -1.439   0.852
 1753.0   -1.441   0.849
 1754.0   -1.442   0.845
 1755.0   -1.444   0.842
 1756.0   -1.445   0.839
 1757.0   -1.447   0.836
 1758.0   -1.449   0.832
 1759.0   -1.450   0.829
 1760.0   -1.452   0.826
 1761.0   -1.453   0.823
 1762.0   -1.455   0.819
 1763.0   -1.457   0.816
 1764.0   -1.458   0.813
 1765.0   -1.460   0.809
 1766.0   -1.462   0.806
 1767.0   -1.463   0.803
 1768.0   -1.465   0.800
 1769.0   -1.466   0.796
 1770.0   -1.467   0.793
 1771.0   -1.468   0.790
 1772.0   -1.469   0.786
 1773.0   -1.470   0.783
 1774.0   -1.471   0.779
 1775.0   -1.472   0.776
 1776.0   -1.473   0.773
 1777.0   -1.474   0.769
 1778.0   -1.474   0.766
 1779.0   -1.475   0.762
 1780.0   -1.476   0.759
 1781.0   -1.476   0.756
 1782.0   -1.477   0.752
 1783.0   -1.477   0.749
 1784.0   -1.478   0.746
 1785.0   -1.478   0.742
 1786.0   -1.479   0.739
 1787.0   -1.479   0.735
 1788.0   -1.480   0.732
 1789.0   -1.480   0.729
 1790.0   -1.480   0.725
 1791.0   -1.481   0.722
 1792.0   -1.481   0.718
 1793.0   -1.481   0.715
 1794.0   -1.481   0.712
 1795.0   -1.481   0.708
 1796.0   -1.481   0.705
 1797.0   -1.481   0.701
 1798.0   -1.481   0.698
 1799.0   -1.481   0.695
 1800.0   -1.481   0.691
 1801.0   -1.481   0.688
 1802.0   -1.481   0.684
 1803.0   -1.481   0.681
 1804.0   -1.480   0.678
 1805.0   -1.480   0.674
 1806.0   -1.480   0.671
 1807.0   -1.479   0.668
 1808.0   -1.479   0.664
 1809.0   -1.478   0.661
 1810.0   -1.478   0.658
 1811.0   -1.478   0.655
 1812.0   -1.477   0.651
 1813.0   -1.476   0.648
 1814.0   -1.476   0.645
 1815.0   -1.475   0.642
 1816.0   -1.474   0.639
 1817.0   -1.474   0.635
 1818.0   -1.473   0.632
 1819.0   -1.472   0.629
 1820.0   -1.471   0.626
 1821.0   -1.470   0.623
 1822.0   -1.469   0.620
 1823.0   -1.467   0.617
 1824.0   -1.466   0.614
 1825.0   -1.465   0.610
 1826.0   -1.463   0.607
 1827.0   -1.462   0.604
 1828.0   -1.461   0.601
 1829.0   -1.459   0.598
 1830.0   -1.458   0.596
 1831.0   -1.456   0.593
 1832.0   -1.455   0.590
 1833.0   -1.453   0.587
 1834.0   -1.452   0.584
 1835.0   -1.450   0.581
 1836.0   -1.449   0.578
 1837.0   -1.447   0.575
 1838.0   -1.446   0.573
 1839.0   -1.444   0.570
 1840.0   -1.442   0.567
 1841.0   -1.440   0.564
 1842.0   -1.438   0.562
 1843.0   -1.436   0.559
 1844.0   -1.434   0.557
 1845.0   -1.432   0.554
 1846.0   -1.430   0.552
 1847.0   -1.428   0.549
 1848.0   -1.425   0.547
 1849.0   -1.423   0.545
 1850.0   -1.421   0.542
 1851.0   -1.418   0.540
 1852.0   -1.416   0.538
 1853.0   -1.414   0.536
 1854.0   -1.411   0.533
 1855.0   -1.409   0.531
 1856.0   -1.406   0.529
 1857.0   -1.404   0.527
 1858.0   -1.401   0.525
 1859.0   -1.398   0.523
 1860.0   -1.396   0.521
 1861.0   -1.393   0.519
 1862.0   -1.390   0.517
 1863.0   -1.387   0.516
 1864.0   -1.385   0.514
 1865.0   -1.382   0.512
 1866.0   -1.379   0.511
 1867.0   -1.376   0.509
 1868.0   -1.373   0.508
 1869.0   -1.371   0.506
 1870.0   -1.368   0.505
 1871.0   -1.365   0.503
 1872.0   -1.362   0.502
 1873.0   -1.359   0.500
 1874.0   -1.356   0.499
 1875.0   -1.353   0.498
 1876.0   -1.350   0.497
 1877.0   -1.347   0.496
