   W         E2+(pi+_n)
 (MeV)      Re      Im
 1080.0    0.107   0.000
 1081.0    0.121   0.000
 1082.0    0.136   0.000
 1083.0    0.149   0.000
 1084.0    0.163   0.000
 1085.0    0.176   0.000
 1086.0    0.189   0.000
 1087.0    0.202   0.000
 1088.0    0.214   0.000
 1089.0    0.226   0.000
 1090.0    0.238   0.000
 1091.0    0.250   0.000
 1092.0    0.261   0.000
 1093.0    0.272   0.000
 1094.0    0.283   0.000
 1095.0    0.294   0.000
 1096.0    0.304   0.000
 1097.0    0.315   0.000
 1098.0    0.325   0.000
 1099.0    0.334   0.000
 1100.0    0.344   0.000
 1101.0    0.353   0.000
 1102.0    0.362   0.000
 1103.0    0.371   0.000
 1104.0    0.380   0.000
 1105.0    0.389   0.000
 1106.0    0.397   0.000
 1107.0    0.406   0.000
 1108.0    0.414   0.000
 1109.0    0.422   0.000
 1110.0    0.429   0.000
 1111.0    0.437   0.000
 1112.0    0.445   0.000
 1113.0    0.452   0.000
 1114.0    0.459   0.000
 1115.0    0.466   0.000
 1116.0    0.473   0.000
 1117.0    0.480   0.000
 1118.0    0.486   0.000
 1119.0    0.493   0.000
 1120.0    0.499   0.000
 1121.0    0.505   0.000
 1122.0    0.511   0.000
 1123.0    0.517   0.000
 1124.0    0.523   0.000
 1125.0    0.529   0.000
 1126.0    0.534   0.000
 1127.0    0.540   0.000
 1128.0    0.545   0.000
 1129.0    0.551   0.000
 1130.0    0.556   0.000
 1131.0    0.561   0.000
 1132.0    0.566   0.000
 1133.0    0.571   0.000
 1134.0    0.575   0.000
 1135.0    0.580   0.000
 1136.0    0.585   0.000
 1137.0    0.589   0.000
 1138.0    0.593   0.000
 1139.0    0.598   0.000
 1140.0    0.602   0.000
 1141.0    0.606   0.000
 1142.0    0.610   0.000
 1143.0    0.614   0.000
 1144.0    0.618   0.000
 1145.0    0.622   0.000
 1146.0    0.626   0.000
 1147.0    0.629   0.000
 1148.0    0.633   0.000
 1149.0    0.636   0.000
 1150.0    0.640   0.000
 1151.0    0.643   0.000
 1152.0    0.646   0.000
 1153.0    0.650   0.000
 1154.0    0.653   0.000
 1155.0    0.656   0.000
 1156.0    0.659   0.000
 1157.0    0.662   0.000
 1158.0    0.665   0.000
 1159.0    0.668   0.000
 1160.0    0.671   0.000
 1161.0    0.673   0.000
 1162.0    0.676   0.000
 1163.0    0.679   0.000
 1164.0    0.681   0.000
 1165.0    0.684   0.000
 1166.0    0.686   0.000
 1167.0    0.689   0.000
 1168.0    0.691   0.000
 1169.0    0.693   0.000
 1170.0    0.696   0.000
 1171.0    0.698   0.000
 1172.0    0.700   0.000
 1173.0    0.702   0.000
 1174.0    0.704   0.000
 1175.0    0.706   0.000
 1176.0    0.708   0.000
 1177.0    0.710   0.000
 1178.0    0.712   0.000
 1179.0    0.714   0.000
 1180.0    0.716   0.000
 1181.0    0.718   0.000
 1182.0    0.719   0.000
 1183.0    0.721   0.000
 1184.0    0.723   0.000
 1185.0    0.724   0.000
 1186.0    0.726   0.000
 1187.0    0.727   0.000
 1188.0    0.729   0.000
 1189.0    0.730   0.000
 1190.0    0.732   0.000
 1191.0    0.733   0.000
 1192.0    0.735   0.000
 1193.0    0.736   0.000
 1194.0    0.737   0.000
 1195.0    0.739   0.000
 1196.0    0.740   0.000
 1197.0    0.741   0.000
 1198.0    0.742   0.000
 1199.0    0.744   0.000
 1200.0    0.745   0.000
 1201.0    0.746   0.000
 1202.0    0.747   0.000
 1203.0    0.748   0.000
 1204.0    0.749   0.000
 1205.0    0.750   0.000
 1206.0    0.751   0.000
 1207.0    0.752   0.000
 1208.0    0.753   0.000
 1209.0    0.754   0.000
 1210.0    0.755   0.000
 1211.0    0.756   0.000
 1212.0    0.756   0.000
 1213.0    0.757   0.000
 1214.0    0.758   0.000
 1215.0    0.759   0.000
 1216.0    0.759   0.000
 1217.0    0.760   0.000
 1218.0    0.761   0.000
 1219.0    0.762   0.000
 1220.0    0.762   0.000
 1221.0    0.763   0.000
 1222.0    0.763   0.000
 1223.0    0.764   0.000
 1224.0    0.765   0.000
 1225.0    0.765   0.000
 1226.0    0.766   0.000
 1227.0    0.766   0.000
 1228.0    0.767   0.000
 1229.0    0.767   0.000
 1230.0    0.768   0.000
 1231.0    0.768   0.000
 1232.0    0.769   0.000
 1233.0    0.769   0.000
 1234.0    0.769   0.000
 1235.0    0.770   0.000
 1236.0    0.770   0.000
 1237.0    0.771   0.000
 1238.0    0.771   0.000
 1239.0    0.771   0.000
 1240.0    0.772   0.000
 1241.0    0.772   0.000
 1242.0    0.772   0.000
 1243.0    0.772   0.000
 1244.0    0.773   0.000
 1245.0    0.773   0.000
 1246.0    0.773   0.000
 1247.0    0.773   0.000
 1248.0    0.773   0.000
 1249.0    0.774   0.000
 1250.0    0.774   0.000
 1251.0    0.774   0.000
 1252.0    0.774   0.000
 1253.0    0.774   0.000
 1254.0    0.774   0.000
 1255.0    0.775   0.000
 1256.0    0.775   0.000
 1257.0    0.775   0.000
 1258.0    0.775   0.000
 1259.0    0.775   0.000
 1260.0    0.775   0.000
 1261.0    0.775   0.000
 1262.0    0.775   0.000
 1263.0    0.775   0.000
 1264.0    0.775   0.000
 1265.0    0.775   0.000
 1266.0    0.775   0.000
 1267.0    0.775   0.000
 1268.0    0.775   0.000
 1269.0    0.775   0.000
 1270.0    0.775   0.000
 1271.0    0.775   0.000
 1272.0    0.775   0.000
 1273.0    0.775   0.000
 1274.0    0.775   0.000
 1275.0    0.774   0.000
 1276.0    0.774   0.000
 1277.0    0.774   0.000
 1278.0    0.774   0.000
 1279.0    0.774   0.000
 1280.0    0.774   0.000
 1281.0    0.774   0.000
 1282.0    0.774   0.000
 1283.0    0.773   0.000
 1284.0    0.773   0.000
 1285.0    0.773   0.000
 1286.0    0.773   0.000
 1287.0    0.773   0.000
 1288.0    0.773   0.000
 1289.0    0.772   0.000
 1290.0    0.772   0.000
 1291.0    0.772   0.000
 1292.0    0.772   0.000
 1293.0    0.771   0.000
 1294.0    0.771   0.000
 1295.0    0.771   0.000
 1296.0    0.771   0.000
 1297.0    0.770   0.000
 1298.0    0.770   0.000
 1299.0    0.770   0.000
 1300.0    0.770   0.000
 1301.0    0.769   0.000
 1302.0    0.769   0.000
 1303.0    0.769   0.000
 1304.0    0.769   0.000
 1305.0    0.768   0.000
 1306.0    0.768   0.000
 1307.0    0.768   0.000
 1308.0    0.767   0.000
 1309.0    0.767   0.000
 1310.0    0.767   0.000
 1311.0    0.766   0.000
 1312.0    0.766   0.000
 1313.0    0.766   0.000
 1314.0    0.765   0.000
 1315.0    0.765   0.000
 1316.0    0.765   0.000
 1317.0    0.764   0.000
 1318.0    0.764   0.000
 1319.0    0.764   0.000
 1320.0    0.763   0.000
 1321.0    0.763   0.000
 1322.0    0.762   0.000
 1323.0    0.762   0.000
 1324.0    0.762   0.000
 1325.0    0.761   0.000
 1326.0    0.761   0.000
 1327.0    0.760   0.000
 1328.0    0.760   0.000
 1329.0    0.760   0.000
 1330.0    0.759   0.000
 1331.0    0.759   0.000
 1332.0    0.758   0.000
 1333.0    0.758   0.000
 1334.0    0.757   0.000
 1335.0    0.757   0.000
 1336.0    0.757   0.000
 1337.0    0.756   0.000
 1338.0    0.756   0.000
 1339.0    0.755   0.000
 1340.0    0.755   0.000
 1341.0    0.754   0.000
 1342.0    0.754   0.000
 1343.0    0.754   0.000
 1344.0    0.753   0.000
 1345.0    0.753   0.000
 1346.0    0.752   0.000
 1347.0    0.752   0.000
 1348.0    0.751   0.000
 1349.0    0.751   0.000
 1350.0    0.750   0.000
 1351.0    0.750   0.000
 1352.0    0.749   0.000
 1353.0    0.749   0.000
 1354.0    0.748   0.000
 1355.0    0.748   0.000
 1356.0    0.747   0.000
 1357.0    0.747   0.000
 1358.0    0.746   0.000
 1359.0    0.746   0.000
 1360.0    0.745   0.000
 1361.0    0.745   0.000
 1362.0    0.744   0.000
 1363.0    0.744   0.000
 1364.0    0.743   0.000
 1365.0    0.743   0.000
 1366.0    0.742   0.000
 1367.0    0.742   0.000
 1368.0    0.741   0.000
 1369.0    0.741   0.000
 1370.0    0.740   0.000
 1371.0    0.740   0.000
 1372.0    0.739   0.000
 1373.0    0.739   0.000
 1374.0    0.738   0.000
 1375.0    0.738   0.000
 1376.0    0.737   0.000
 1377.0    0.737   0.000
 1378.0    0.736   0.000
 1379.0    0.735   0.000
 1380.0    0.735   0.000
 1381.0    0.734   0.000
 1382.0    0.734   0.000
 1383.0    0.733   0.000
 1384.0    0.733   0.000
 1385.0    0.732   0.000
 1386.0    0.732   0.000
 1387.0    0.731   0.000
 1388.0    0.731   0.000
 1389.0    0.730   0.000
 1390.0    0.729   0.000
 1391.0    0.729   0.000
 1392.0    0.728   0.000
 1393.0    0.728   0.000
 1394.0    0.727   0.000
 1395.0    0.727   0.000
 1396.0    0.726   0.000
 1397.0    0.726   0.000
 1398.0    0.725   0.000
 1399.0    0.724   0.000
 1400.0    0.724   0.000
 1401.0    0.723   0.000
 1402.0    0.723   0.000
 1403.0    0.722   0.000
 1404.0    0.722   0.000
 1405.0    0.721   0.000
 1406.0    0.721   0.000
 1407.0    0.720   0.000
 1408.0    0.719   0.000
 1409.0    0.719   0.000
 1410.0    0.718   0.000
 1411.0    0.718   0.000
 1412.0    0.717   0.000
 1413.0    0.717   0.000
 1414.0    0.716   0.000
 1415.0    0.715   0.000
 1416.0    0.715   0.000
 1417.0    0.714   0.000
 1418.0    0.714   0.000
 1419.0    0.713   0.000
 1420.0    0.712   0.000
 1421.0    0.712   0.000
 1422.0    0.711   0.000
 1423.0    0.711   0.000
 1424.0    0.710   0.000
 1425.0    0.710   0.000
 1426.0    0.709   0.000
 1427.0    0.708   0.000
 1428.0    0.708   0.000
 1429.0    0.707   0.000
 1430.0    0.707   0.000
 1431.0    0.706   0.000
 1432.0    0.705   0.000
 1433.0    0.705   0.000
 1434.0    0.704   0.000
 1435.0    0.704   0.000
 1436.0    0.703   0.000
 1437.0    0.703   0.000
 1438.0    0.702   0.000
 1439.0    0.701   0.000
 1440.0    0.701   0.000
 1441.0    0.700   0.000
 1442.0    0.700   0.000
 1443.0    0.699   0.000
 1444.0    0.698   0.000
 1445.0    0.698   0.000
 1446.0    0.697   0.000
 1447.0    0.697   0.000
 1448.0    0.696   0.000
 1449.0    0.695   0.000
 1450.0    0.695   0.000
 1451.0    0.694   0.000
 1452.0    0.694   0.000
 1453.0    0.693   0.000
 1454.0    0.693   0.000
 1455.0    0.692   0.000
 1456.0    0.691   0.000
 1457.0    0.691   0.000
 1458.0    0.690   0.000
 1459.0    0.690   0.000
 1460.0    0.689   0.000
 1461.0    0.688   0.000
 1462.0    0.688   0.000
 1463.0    0.687   0.000
 1464.0    0.687   0.000
 1465.0    0.686   0.000
 1466.0    0.685   0.000
 1467.0    0.685   0.000
 1468.0    0.684   0.000
 1469.0    0.684   0.000
 1470.0    0.683   0.000
 1471.0    0.682   0.000
 1472.0    0.682   0.000
 1473.0    0.681   0.000
 1474.0    0.681   0.000
 1475.0    0.680   0.000
 1476.0    0.680   0.000
 1477.0    0.679   0.000
 1478.0    0.678   0.000
 1479.0    0.678   0.000
 1480.0    0.677   0.000
 1481.0    0.677   0.000
 1482.0    0.676   0.000
 1483.0    0.675   0.000
 1484.0    0.675   0.000
 1485.0    0.674   0.000
 1486.0    0.674   0.000
 1487.0    0.673   0.000
 1488.0    0.672   0.000
 1489.0    0.672   0.000
 1490.0    0.671   0.000
 1491.0    0.671   0.000
 1492.0    0.670   0.000
 1493.0    0.670   0.000
 1494.0    0.669   0.000
 1495.0    0.668   0.000
 1496.0    0.668   0.000
 1497.0    0.667   0.000
 1498.0    0.667   0.000
 1499.0    0.666   0.000
 1500.0    0.665   0.000
 1501.0    0.665   0.000
 1502.0    0.664   0.000
 1503.0    0.664   0.000
 1504.0    0.663   0.000
 1505.0    0.662   0.000
 1506.0    0.662   0.000
 1507.0    0.661   0.000
 1508.0    0.661   0.000
 1509.0    0.660   0.000
 1510.0    0.660   0.000
 1511.0    0.659   0.000
 1512.0    0.658   0.000
 1513.0    0.658   0.000
 1514.0    0.657   0.000
 1515.0    0.657   0.000
 1516.0    0.656   0.000
 1517.0    0.655   0.000
 1518.0    0.655   0.000
 1519.0    0.654   0.000
 1520.0    0.654   0.000
 1521.0    0.653   0.000
 1522.0    0.653   0.000
 1523.0    0.652   0.000
 1524.0    0.651   0.000
 1525.0    0.651   0.000
 1526.0    0.650   0.000
 1527.0    0.650   0.000
 1528.0    0.649   0.000
 1529.0    0.649   0.000
 1530.0    0.648   0.000
 1531.0    0.647   0.000
 1532.0    0.647   0.000
 1533.0    0.646   0.000
 1534.0    0.646   0.000
 1535.0    0.645   0.000
 1536.0    0.645   0.000
 1537.0    0.644   0.000
 1538.0    0.643   0.000
 1539.0    0.643   0.000
 1540.0    0.642   0.000
 1541.0    0.642   0.000
 1542.0    0.641   0.000
 1543.0    0.641   0.000
 1544.0    0.640   0.000
 1545.0    0.639   0.000
 1546.0    0.639   0.000
 1547.0    0.638   0.000
 1548.0    0.638   0.000
 1549.0    0.637   0.000
 1550.0    0.637   0.000
 1551.0    0.636   0.000
 1552.0    0.635   0.000
 1553.0    0.635   0.000
 1554.0    0.634   0.000
 1555.0    0.634   0.000
 1556.0    0.633   0.000
 1557.0    0.633   0.000
 1558.0    0.632   0.000
 1559.0    0.631   0.000
 1560.0    0.631   0.000
 1561.0    0.630   0.000
 1562.0    0.630   0.000
 1563.0    0.629   0.000
 1564.0    0.629   0.000
 1565.0    0.628   0.000
 1566.0    0.628   0.000
 1567.0    0.627   0.000
 1568.0    0.626   0.000
 1569.0    0.626   0.000
 1570.0    0.625   0.000
 1571.0    0.625   0.000
 1572.0    0.624   0.000
 1573.0    0.624   0.000
 1574.0    0.623   0.000
 1575.0    0.623   0.000
 1576.0    0.622   0.000
 1577.0    0.621   0.000
 1578.0    0.621   0.000
 1579.0    0.620   0.000
 1580.0    0.620   0.000
 1581.0    0.619   0.000
 1582.0    0.619   0.000
 1583.0    0.618   0.000
 1584.0    0.618   0.000
 1585.0    0.617   0.000
 1586.0    0.617   0.000
 1587.0    0.616   0.000
 1588.0    0.615   0.000
 1589.0    0.615   0.000
 1590.0    0.614   0.000
 1591.0    0.614   0.000
 1592.0    0.613   0.000
 1593.0    0.613   0.000
 1594.0    0.612   0.000
 1595.0    0.612   0.000
 1596.0    0.611   0.000
 1597.0    0.611   0.000
 1598.0    0.610   0.000
 1599.0    0.609   0.000
 1600.0    0.609   0.000
 1601.0    0.608   0.000
 1602.0    0.608   0.000
 1603.0    0.607   0.000
 1604.0    0.607   0.000
 1605.0    0.606   0.000
 1606.0    0.606   0.000
 1607.0    0.605   0.000
 1608.0    0.605   0.000
 1609.0    0.604   0.000
 1610.0    0.604   0.000
 1611.0    0.603   0.000
 1612.0    0.603   0.000
 1613.0    0.602   0.000
 1614.0    0.602   0.000
 1615.0    0.601   0.000
 1616.0    0.600   0.000
 1617.0    0.600   0.000
 1618.0    0.599   0.000
 1619.0    0.599   0.000
 1620.0    0.598   0.000
 1621.0    0.598   0.000
 1622.0    0.597   0.000
 1623.0    0.597   0.000
 1624.0    0.596   0.000
 1625.0    0.596   0.000
 1626.0    0.595   0.000
 1627.0    0.595   0.000
 1628.0    0.594   0.000
 1629.0    0.594   0.000
 1630.0    0.593   0.000
 1631.0    0.593   0.000
 1632.0    0.592   0.000
 1633.0    0.592   0.000
 1634.0    0.591   0.000
 1635.0    0.591   0.000
 1636.0    0.590   0.000
 1637.0    0.590   0.000
 1638.0    0.589   0.000
 1639.0    0.589   0.000
 1640.0    0.588   0.000
 1641.0    0.588   0.000
 1642.0    0.587   0.000
 1643.0    0.587   0.000
 1644.0    0.586   0.000
 1645.0    0.586   0.000
 1646.0    0.585   0.000
 1647.0    0.584   0.000
 1648.0    0.584   0.000
 1649.0    0.583   0.000
 1650.0    0.583   0.000
 1651.0    0.582   0.000
 1652.0    0.582   0.000
 1653.0    0.581   0.000
 1654.0    0.581   0.000
 1655.0    0.580   0.000
 1656.0    0.580   0.000
 1657.0    0.579   0.000
 1658.0    0.579   0.000
 1659.0    0.578   0.000
 1660.0    0.578   0.000
 1661.0    0.578   0.000
 1662.0    0.577   0.000
 1663.0    0.577   0.000
 1664.0    0.576   0.000
 1665.0    0.576   0.000
 1666.0    0.575   0.000
 1667.0    0.575   0.000
 1668.0    0.574   0.000
 1669.0    0.574   0.000
 1670.0    0.573   0.000
 1671.0    0.573   0.000
 1672.0    0.572   0.000
 1673.0    0.572   0.000
 1674.0    0.571   0.000
 1675.0    0.571   0.000
 1676.0    0.570   0.000
 1677.0    0.570   0.000
 1678.0    0.569   0.000
 1679.0    0.569   0.000
 1680.0    0.568   0.000
 1681.0    0.568   0.000
 1682.0    0.567   0.000
 1683.0    0.567   0.000
 1684.0    0.566   0.000
 1685.0    0.566   0.000
 1686.0    0.565   0.000
 1687.0    0.565   0.000
 1688.0    0.564   0.000
 1689.0    0.564   0.000
 1690.0    0.563   0.000
 1691.0    0.563   0.000
 1692.0    0.563   0.000
 1693.0    0.562   0.000
 1694.0    0.562   0.000
 1695.0    0.561   0.000
 1696.0    0.561   0.000
 1697.0    0.560   0.000
 1698.0    0.560   0.000
 1699.0    0.559   0.000
 1700.0    0.559   0.000
 1701.0    0.558   0.000
 1702.0    0.558   0.000
 1703.0    0.557   0.000
 1704.0    0.557   0.000
 1705.0    0.556   0.000
 1706.0    0.556   0.000
 1707.0    0.555   0.000
 1708.0    0.555   0.000
 1709.0    0.555   0.000
 1710.0    0.554   0.000
 1711.0    0.554   0.000
 1712.0    0.553   0.000
 1713.0    0.553   0.000
 1714.0    0.552   0.000
 1715.0    0.552   0.000
 1716.0    0.551   0.000
 1717.0    0.551   0.000
 1718.0    0.550   0.000
 1719.0    0.550   0.000
 1720.0    0.550   0.000
 1721.0    0.549   0.000
 1722.0    0.549   0.000
 1723.0    0.548   0.000
 1724.0    0.548   0.000
 1725.0    0.547   0.000
 1726.0    0.547   0.000
 1727.0    0.546   0.000
 1728.0    0.546   0.000
 1729.0    0.545   0.000
 1730.0    0.545   0.000
 1731.0    0.545   0.000
 1732.0    0.544   0.000
 1733.0    0.544   0.000
 1734.0    0.543   0.000
 1735.0    0.543   0.000
 1736.0    0.542   0.000
 1737.0    0.542   0.000
 1738.0    0.542   0.000
 1739.0    0.541   0.000
 1740.0    0.541   0.000
 1741.0    0.540   0.000
 1742.0    0.540   0.000
 1743.0    0.539   0.000
 1744.0    0.539   0.000
 1745.0    0.538   0.000
 1746.0    0.538   0.000
 1747.0    0.538   0.000
 1748.0    0.537   0.000
 1749.0    0.537   0.000
 1750.0    0.536   0.000
 1751.0    0.536   0.000
 1752.0    0.535   0.000
 1753.0    0.535   0.000
 1754.0    0.535   0.000
 1755.0    0.534   0.000
 1756.0    0.534   0.000
 1757.0    0.533   0.000
 1758.0    0.533   0.000
 1759.0    0.532   0.000
 1760.0    0.532   0.000
 1761.0    0.532   0.000
 1762.0    0.531   0.000
 1763.0    0.531   0.000
 1764.0    0.530   0.000
 1765.0    0.530   0.000
 1766.0    0.529   0.000
 1767.0    0.529   0.000
 1768.0    0.529   0.000
 1769.0    0.528   0.000
 1770.0    0.528   0.000
 1771.0    0.527   0.000
 1772.0    0.527   0.000
 1773.0    0.527   0.000
 1774.0    0.526   0.000
 1775.0    0.526   0.000
 1776.0    0.525   0.000
 1777.0    0.525   0.000
 1778.0    0.524   0.000
 1779.0    0.524   0.000
 1780.0    0.524   0.000
 1781.0    0.523   0.000
 1782.0    0.523   0.000
 1783.0    0.522   0.000
 1784.0    0.522   0.000
 1785.0    0.522   0.000
 1786.0    0.521   0.000
 1787.0    0.521   0.000
 1788.0    0.520   0.000
 1789.0    0.520   0.000
 1790.0    0.520   0.000
 1791.0    0.519   0.000
 1792.0    0.519   0.000
 1793.0    0.518   0.000
 1794.0    0.518   0.000
 1795.0    0.518   0.000
 1796.0    0.517   0.000
 1797.0    0.517   0.000
 1798.0    0.516   0.000
 1799.0    0.516   0.000
 1800.0    0.516   0.000
 1801.0    0.515   0.000
 1802.0    0.515   0.000
 1803.0    0.514   0.000
 1804.0    0.514   0.000
 1805.0    0.514   0.000
 1806.0    0.513   0.000
 1807.0    0.513   0.000
 1808.0    0.512   0.000
 1809.0    0.512   0.000
 1810.0    0.512   0.000
 1811.0    0.511   0.000
 1812.0    0.511   0.000
 1813.0    0.510   0.000
 1814.0    0.510   0.000
 1815.0    0.510   0.000
 1816.0    0.509   0.000
 1817.0    0.509   0.000
 1818.0    0.508   0.000
 1819.0    0.508   0.000
 1820.0    0.508   0.000
 1821.0    0.507   0.000
 1822.0    0.507   0.000
 1823.0    0.507   0.000
 1824.0    0.506   0.000
 1825.0    0.506   0.000
 1826.0    0.505   0.000
 1827.0    0.505   0.000
 1828.0    0.505   0.000
 1829.0    0.504   0.000
 1830.0    0.504   0.000
 1831.0    0.504   0.000
 1832.0    0.503   0.000
 1833.0    0.503   0.000
 1834.0    0.502   0.000
 1835.0    0.502   0.000
 1836.0    0.502   0.000
 1837.0    0.501   0.000
 1838.0    0.501   0.000
 1839.0    0.501   0.000
 1840.0    0.500   0.000
 1841.0    0.500   0.000
 1842.0    0.499   0.000
 1843.0    0.499   0.000
 1844.0    0.499   0.000
 1845.0    0.498   0.000
 1846.0    0.498   0.000
 1847.0    0.498   0.000
 1848.0    0.497   0.000
 1849.0    0.497   0.000
 1850.0    0.497   0.000
 1851.0    0.496   0.000
 1852.0    0.496   0.000
 1853.0    0.495   0.000
 1854.0    0.495   0.000
 1855.0    0.495   0.000
 1856.0    0.494   0.000
 1857.0    0.494   0.000
 1858.0    0.494   0.000
 1859.0    0.493   0.000
 1860.0    0.493   0.000
 1861.0    0.493   0.000
 1862.0    0.492   0.000
 1863.0    0.492   0.000
 1864.0    0.491   0.000
 1865.0    0.491   0.000
 1866.0    0.491   0.000
 1867.0    0.490   0.000
 1868.0    0.490   0.000
 1869.0    0.490   0.000
 1870.0    0.489   0.000
 1871.0    0.489   0.000
 1872.0    0.489   0.000
 1873.0    0.488   0.000
 1874.0    0.488   0.000
 1875.0    0.488   0.000
 1876.0    0.487   0.000
 1877.0    0.487   0.000
