   W         M1+(pi+_n)
 (MeV)      Re      Im
 1080.0   -2.660  -0.002
 1081.0   -2.854  -0.003
 1082.0   -3.037  -0.006
 1083.0   -3.212  -0.008
 1084.0   -3.378  -0.011
 1085.0   -3.538  -0.014
 1086.0   -3.693  -0.017
 1087.0   -3.842  -0.021
 1088.0   -3.988  -0.025
 1089.0   -4.129  -0.030
 1090.0   -4.267  -0.035
 1091.0   -4.403  -0.041
 1092.0   -4.535  -0.048
 1093.0   -4.666  -0.055
 1094.0   -4.794  -0.062
 1095.0   -4.921  -0.071
 1096.0   -5.045  -0.080
 1097.0   -5.169  -0.090
 1098.0   -5.290  -0.100
 1099.0   -5.411  -0.111
 1100.0   -5.531  -0.123
 1101.0   -5.650  -0.136
 1102.0   -5.768  -0.149
 1103.0   -5.885  -0.163
 1104.0   -6.002  -0.178
 1105.0   -6.118  -0.193
 1106.0   -6.233  -0.210
 1107.0   -6.349  -0.227
 1108.0   -6.464  -0.246
 1109.0   -6.579  -0.265
 1110.0   -6.694  -0.286
 1111.0   -6.808  -0.307
 1112.0   -6.923  -0.330
 1113.0   -7.038  -0.353
 1114.0   -7.152  -0.378
 1115.0   -7.267  -0.404
 1116.0   -7.382  -0.432
 1117.0   -7.498  -0.460
 1118.0   -7.613  -0.490
 1119.0   -7.729  -0.522
 1120.0   -7.846  -0.555
 1121.0   -7.962  -0.589
 1122.0   -8.079  -0.625
 1123.0   -8.197  -0.662
 1124.0   -8.315  -0.701
 1125.0   -8.434  -0.742
 1126.0   -8.553  -0.785
 1127.0   -8.673  -0.829
 1128.0   -8.793  -0.876
 1129.0   -8.915  -0.924
 1130.0   -9.036  -0.975
 1131.0   -9.159  -1.027
 1132.0   -9.282  -1.082
 1133.0   -9.405  -1.139
 1134.0   -9.530  -1.199
 1135.0   -9.655  -1.261
 1136.0   -9.781  -1.325
 1137.0   -9.907  -1.392
 1138.0  -10.034  -1.462
 1139.0  -10.162  -1.535
 1140.0  -10.291  -1.611
 1141.0  -10.420  -1.690
 1142.0  -10.550  -1.772
 1143.0  -10.680  -1.857
 1144.0  -10.811  -1.946
 1145.0  -10.943  -2.038
 1146.0  -11.075  -2.134
 1147.0  -11.207  -2.234
 1148.0  -11.340  -2.337
 1149.0  -11.473  -2.445
 1150.0  -11.606  -2.556
 1151.0  -11.740  -2.672
 1152.0  -11.873  -2.792
 1153.0  -12.006  -2.917
 1154.0  -12.140  -3.046
 1155.0  -12.273  -3.180
 1156.0  -12.405  -3.319
 1157.0  -12.537  -3.464
 1158.0  -12.669  -3.613
 1159.0  -12.799  -3.768
 1160.0  -12.929  -3.928
 1161.0  -13.057  -4.093
 1162.0  -13.184  -4.265
 1163.0  -13.309  -4.442
 1164.0  -13.432  -4.625
 1165.0  -13.553  -4.815
 1166.0  -13.671  -5.010
 1167.0  -13.787  -5.212
 1168.0  -13.900  -5.420
 1169.0  -14.009  -5.635
 1170.0  -14.114  -5.856
 1171.0  -14.215  -6.084
 1172.0  -14.312  -6.318
 1173.0  -14.403  -6.559
 1174.0  -14.489  -6.807
 1175.0  -14.569  -7.061
 1176.0  -14.643  -7.321
 1177.0  -14.710  -7.588
 1178.0  -14.770  -7.860
 1179.0  -14.823  -8.139
 1180.0  -14.866  -8.424
 1181.0  -14.902  -8.714
 1182.0  -14.927  -9.009
 1183.0  -14.943  -9.309
 1184.0  -14.949  -9.613
 1185.0  -14.944  -9.922
 1186.0  -14.928 -10.234
 1187.0  -14.900 -10.550
 1188.0  -14.859 -10.868
 1189.0  -14.806 -11.188
 1190.0  -14.740 -11.509
 1191.0  -14.660 -11.831
 1192.0  -14.566 -12.153
 1193.0  -14.458 -12.474
 1194.0  -14.335 -12.794
 1195.0  -14.198 -13.111
 1196.0  -14.047 -13.425
 1197.0  -13.880 -13.735
 1198.0  -13.699 -14.040
 1199.0  -13.503 -14.339
 1200.0  -13.292 -14.631
 1201.0  -13.067 -14.915
 1202.0  -12.828 -15.191
 1203.0  -12.574 -15.458
 1204.0  -12.308 -15.714
 1205.0  -12.029 -15.959
 1206.0  -11.738 -16.192
 1207.0  -11.436 -16.413
 1208.0  -11.123 -16.621
 1209.0  -10.800 -16.815
 1210.0  -10.468 -16.995
 1211.0  -10.128 -17.160
 1212.0   -9.780 -17.310
 1213.0   -9.427 -17.445
 1214.0   -9.067 -17.564
 1215.0   -8.704 -17.667
 1216.0   -8.337 -17.755
 1217.0   -7.968 -17.828
 1218.0   -7.597 -17.885
 1219.0   -7.226 -17.926
 1220.0   -6.855 -17.952
 1221.0   -6.486 -17.964
 1222.0   -6.119 -17.961
 1223.0   -5.754 -17.944
 1224.0   -5.394 -17.913
 1225.0   -5.038 -17.869
 1226.0   -4.687 -17.813
 1227.0   -4.341 -17.744
 1228.0   -4.002 -17.664
 1229.0   -3.669 -17.574
 1230.0   -3.344 -17.473
 1231.0   -3.027 -17.363
 1232.0   -2.717 -17.244
 1233.0   -2.415 -17.116
 1234.0   -2.122 -16.981
 1235.0   -1.838 -16.839
 1236.0   -1.562 -16.690
 1237.0   -1.295 -16.536
 1238.0   -1.036 -16.376
 1239.0   -0.786 -16.211
 1240.0   -0.546 -16.042
 1241.0   -0.314 -15.870
 1242.0   -0.090 -15.694
 1243.0    0.124 -15.516
 1244.0    0.330 -15.335
 1245.0    0.528 -15.152
 1246.0    0.718 -14.967
 1247.0    0.899 -14.782
 1248.0    1.072 -14.595
 1249.0    1.238 -14.408
 1250.0    1.396 -14.221
 1251.0    1.547 -14.033
 1252.0    1.690 -13.847
 1253.0    1.827 -13.660
 1254.0    1.957 -13.475
 1255.0    2.080 -13.290
 1256.0    2.197 -13.107
 1257.0    2.308 -12.924
 1258.0    2.413 -12.743
 1259.0    2.513 -12.564
 1260.0    2.607 -12.386
 1261.0    2.696 -12.210
 1262.0    2.780 -12.036
 1263.0    2.859 -11.864
 1264.0    2.933 -11.693
 1265.0    3.004 -11.525
 1266.0    3.070 -11.359
 1267.0    3.131 -11.195
 1268.0    3.189 -11.033
 1269.0    3.243 -10.873
 1270.0    3.294 -10.715
 1271.0    3.341 -10.560
 1272.0    3.384 -10.407
 1273.0    3.425 -10.256
 1274.0    3.462 -10.107
 1275.0    3.497  -9.961
 1276.0    3.529  -9.817
 1277.0    3.558  -9.675
 1278.0    3.585  -9.535
 1279.0    3.609  -9.397
 1280.0    3.631  -9.262
 1281.0    3.651  -9.129
 1282.0    3.668  -8.998
 1283.0    3.684  -8.869
 1284.0    3.698  -8.742
 1285.0    3.710  -8.617
 1286.0    3.720  -8.494
 1287.0    3.729  -8.373
 1288.0    3.736  -8.254
 1289.0    3.742  -8.137
 1290.0    3.746  -8.022
 1291.0    3.749  -7.909
 1292.0    3.750  -7.797
 1293.0    3.751  -7.688
 1294.0    3.750  -7.580
 1295.0    3.748  -7.474
 1296.0    3.745  -7.369
 1297.0    3.740  -7.266
 1298.0    3.735  -7.166
 1299.0    3.729  -7.066
 1300.0    3.732  -6.960
 1301.0    3.724  -6.865
 1302.0    3.715  -6.770
 1303.0    3.705  -6.678
 1304.0    3.695  -6.587
 1305.0    3.684  -6.497
 1306.0    3.673  -6.409
 1307.0    3.661  -6.322
 1308.0    3.648  -6.236
 1309.0    3.634  -6.152
 1310.0    3.620  -6.069
 1311.0    3.606  -5.988
 1312.0    3.591  -5.907
 1313.0    3.575  -5.828
 1314.0    3.559  -5.750
 1315.0    3.543  -5.673
 1316.0    3.526  -5.598
 1317.0    3.509  -5.523
 1318.0    3.492  -5.450
 1319.0    3.474  -5.377
 1320.0    3.456  -5.306
 1321.0    3.438  -5.236
 1322.0    3.419  -5.167
 1323.0    3.400  -5.099
 1324.0    3.381  -5.032
 1325.0    3.362  -4.966
 1326.0    3.343  -4.901
 1327.0    3.323  -4.837
 1328.0    3.303  -4.774
 1329.0    3.283  -4.712
 1330.0    3.263  -4.651
 1331.0    3.242  -4.590
 1332.0    3.222  -4.530
 1333.0    3.201  -4.472
 1334.0    3.180  -4.414
 1335.0    3.159  -4.356
 1336.0    3.137  -4.300
 1337.0    3.116  -4.244
 1338.0    3.095  -4.189
 1339.0    3.073  -4.135
 1340.0    3.051  -4.082
 1341.0    3.030  -4.029
 1342.0    3.008  -3.977
 1343.0    2.987  -3.926
 1344.0    2.965  -3.875
 1345.0    2.943  -3.825
 1346.0    2.921  -3.776
 1347.0    2.899  -3.727
 1348.0    2.878  -3.679
 1349.0    2.855  -3.631
 1350.0    2.833  -3.585
 1351.0    2.811  -3.538
 1352.0    2.789  -3.492
 1353.0    2.767  -3.447
 1354.0    2.744  -3.403
 1355.0    2.722  -3.358
 1356.0    2.699  -3.315
 1357.0    2.677  -3.272
 1358.0    2.654  -3.229
 1359.0    2.632  -3.187
 1360.0    2.609  -3.146
 1361.0    2.587  -3.105
 1362.0    2.565  -3.064
 1363.0    2.542  -3.024
 1364.0    2.520  -2.985
 1365.0    2.497  -2.946
 1366.0    2.475  -2.907
 1367.0    2.453  -2.869
 1368.0    2.431  -2.831
 1369.0    2.408  -2.794
 1370.0    2.386  -2.757
 1371.0    2.364  -2.721
 1372.0    2.342  -2.685
 1373.0    2.320  -2.650
 1374.0    2.297  -2.615
 1375.0    2.275  -2.580
 1376.0    2.253  -2.546
 1377.0    2.231  -2.512
 1378.0    2.209  -2.478
 1379.0    2.187  -2.445
 1380.0    2.165  -2.412
 1381.0    2.143  -2.380
 1382.0    2.121  -2.347
 1383.0    2.099  -2.316
 1384.0    2.077  -2.284
 1385.0    2.055  -2.253
 1386.0    2.033  -2.222
 1387.0    2.012  -2.191
 1388.0    1.990  -2.161
 1389.0    1.968  -2.131
 1390.0    1.946  -2.102
 1391.0    1.925  -2.073
 1392.0    1.903  -2.044
 1393.0    1.882  -2.015
 1394.0    1.860  -1.987
 1395.0    1.839  -1.959
 1396.0    1.817  -1.931
 1397.0    1.796  -1.904
 1398.0    1.774  -1.877
 1399.0    1.753  -1.850
 1400.0    1.732  -1.824
 1401.0    1.710  -1.797
 1402.0    1.689  -1.771
 1403.0    1.667  -1.746
 1404.0    1.646  -1.720
 1405.0    1.625  -1.695
 1406.0    1.603  -1.670
 1407.0    1.582  -1.645
 1408.0    1.561  -1.621
 1409.0    1.540  -1.597
 1410.0    1.519  -1.573
 1411.0    1.498  -1.550
 1412.0    1.477  -1.526
 1413.0    1.457  -1.503
 1414.0    1.436  -1.480
 1415.0    1.416  -1.458
 1416.0    1.395  -1.435
 1417.0    1.375  -1.413
 1418.0    1.355  -1.391
 1419.0    1.335  -1.370
 1420.0    1.315  -1.349
 1421.0    1.295  -1.327
 1422.0    1.275  -1.307
 1423.0    1.255  -1.286
 1424.0    1.235  -1.265
 1425.0    1.215  -1.245
 1426.0    1.195  -1.225
 1427.0    1.175  -1.206
 1428.0    1.156  -1.186
 1429.0    1.136  -1.167
 1430.0    1.116  -1.147
 1431.0    1.097  -1.128
 1432.0    1.077  -1.110
 1433.0    1.058  -1.091
 1434.0    1.038  -1.072
 1435.0    1.019  -1.054
 1436.0    1.000  -1.036
 1437.0    0.981  -1.018
 1438.0    0.962  -1.001
 1439.0    0.943  -0.983
 1440.0    0.924  -0.966
 1441.0    0.905  -0.949
 1442.0    0.886  -0.932
 1443.0    0.867  -0.916
 1444.0    0.849  -0.899
 1445.0    0.830  -0.883
 1446.0    0.812  -0.867
 1447.0    0.793  -0.851
 1448.0    0.775  -0.836
 1449.0    0.757  -0.820
 1450.0    0.738  -0.805
 1451.0    0.720  -0.790
 1452.0    0.702  -0.775
 1453.0    0.684  -0.760
 1454.0    0.666  -0.745
 1455.0    0.648  -0.731
 1456.0    0.630  -0.716
 1457.0    0.612  -0.702
 1458.0    0.594  -0.688
 1459.0    0.577  -0.674
 1460.0    0.559  -0.661
 1461.0    0.542  -0.647
 1462.0    0.525  -0.634
 1463.0    0.507  -0.621
 1464.0    0.490  -0.608
 1465.0    0.474  -0.595
 1466.0    0.457  -0.583
 1467.0    0.440  -0.570
 1468.0    0.424  -0.558
 1469.0    0.407  -0.546
 1470.0    0.391  -0.534
 1471.0    0.374  -0.522
 1472.0    0.358  -0.510
 1473.0    0.342  -0.499
 1474.0    0.326  -0.488
 1475.0    0.311  -0.476
 1476.0    0.295  -0.465
 1477.0    0.279  -0.455
 1478.0    0.264  -0.444
 1479.0    0.248  -0.433
 1480.0    0.233  -0.423
 1481.0    0.218  -0.412
 1482.0    0.203  -0.402
 1483.0    0.188  -0.392
 1484.0    0.173  -0.382
 1485.0    0.158  -0.373
 1486.0    0.143  -0.363
 1487.0    0.128  -0.354
 1488.0    0.114  -0.344
 1489.0    0.099  -0.335
 1490.0    0.085  -0.326
 1491.0    0.071  -0.317
 1492.0    0.057  -0.308
 1493.0    0.043  -0.300
 1494.0    0.029  -0.291
 1495.0    0.016  -0.283
 1496.0    0.002  -0.274
 1497.0   -0.011  -0.266
 1498.0   -0.025  -0.258
 1499.0   -0.038  -0.250
 1500.0   -0.051  -0.242
 1501.0   -0.064  -0.235
 1502.0   -0.077  -0.227
 1503.0   -0.090  -0.219
 1504.0   -0.103  -0.212
 1505.0   -0.115  -0.205
 1506.0   -0.128  -0.198
 1507.0   -0.140  -0.190
 1508.0   -0.152  -0.183
 1509.0   -0.164  -0.177
 1510.0   -0.176  -0.170
 1511.0   -0.187  -0.163
 1512.0   -0.199  -0.157
 1513.0   -0.210  -0.150
 1514.0   -0.221  -0.144
 1515.0   -0.232  -0.138
 1516.0   -0.243  -0.132
 1517.0   -0.253  -0.126
 1518.0   -0.264  -0.120
 1519.0   -0.274  -0.114
 1520.0   -0.284  -0.108
 1521.0   -0.295  -0.103
 1522.0   -0.305  -0.097
 1523.0   -0.314  -0.092
 1524.0   -0.324  -0.086
 1525.0   -0.334  -0.081
 1526.0   -0.344  -0.076
 1527.0   -0.353  -0.071
 1528.0   -0.362  -0.066
 1529.0   -0.372  -0.060
 1530.0   -0.381  -0.055
 1531.0   -0.390  -0.051
 1532.0   -0.399  -0.046
 1533.0   -0.408  -0.041
 1534.0   -0.416  -0.036
 1535.0   -0.425  -0.032
 1536.0   -0.433  -0.027
 1537.0   -0.442  -0.022
 1538.0   -0.450  -0.018
 1539.0   -0.458  -0.014
 1540.0   -0.466  -0.009
 1541.0   -0.473  -0.005
 1542.0   -0.481  -0.001
 1543.0   -0.488   0.003
 1544.0   -0.495   0.007
 1545.0   -0.502   0.012
 1546.0   -0.509   0.015
 1547.0   -0.516   0.019
 1548.0   -0.522   0.023
 1549.0   -0.529   0.027
 1550.0   -0.535   0.031
 1551.0   -0.541   0.035
 1552.0   -0.548   0.039
 1553.0   -0.554   0.042
 1554.0   -0.560   0.046
 1555.0   -0.565   0.050
 1556.0   -0.571   0.053
 1557.0   -0.577   0.057
 1558.0   -0.582   0.060
 1559.0   -0.588   0.064
 1560.0   -0.593   0.067
 1561.0   -0.598   0.071
 1562.0   -0.603   0.074
 1563.0   -0.608   0.078
 1564.0   -0.613   0.081
 1565.0   -0.617   0.084
 1566.0   -0.622   0.088
 1567.0   -0.626   0.091
 1568.0   -0.630   0.094
 1569.0   -0.635   0.097
 1570.0   -0.639   0.101
 1571.0   -0.642   0.104
 1572.0   -0.646   0.107
 1573.0   -0.650   0.110
 1574.0   -0.653   0.113
 1575.0   -0.657   0.117
 1576.0   -0.660   0.120
 1577.0   -0.664   0.123
 1578.0   -0.667   0.126
 1579.0   -0.670   0.129
 1580.0   -0.673   0.132
 1581.0   -0.676   0.135
 1582.0   -0.679   0.139
 1583.0   -0.682   0.142
 1584.0   -0.685   0.145
 1585.0   -0.687   0.148
 1586.0   -0.690   0.151
 1587.0   -0.693   0.154
 1588.0   -0.695   0.157
 1589.0   -0.698   0.161
 1590.0   -0.700   0.164
 1591.0   -0.703   0.167
 1592.0   -0.705   0.170
 1593.0   -0.707   0.173
 1594.0   -0.709   0.176
 1595.0   -0.711   0.180
 1596.0   -0.713   0.183
 1597.0   -0.715   0.186
 1598.0   -0.717   0.189
 1599.0   -0.719   0.193
 1600.0   -0.720   0.196
 1601.0   -0.722   0.199
 1602.0   -0.724   0.202
 1603.0   -0.726   0.206
 1604.0   -0.727   0.209
 1605.0   -0.729   0.212
 1606.0   -0.730   0.216
 1607.0   -0.732   0.219
 1608.0   -0.733   0.223
 1609.0   -0.734   0.226
 1610.0   -0.736   0.229
 1611.0   -0.737   0.233
 1612.0   -0.738   0.236
 1613.0   -0.739   0.240
 1614.0   -0.740   0.243
 1615.0   -0.741   0.247
 1616.0   -0.742   0.250
 1617.0   -0.743   0.254
 1618.0   -0.744   0.257
 1619.0   -0.745   0.261
 1620.0   -0.746   0.265
 1621.0   -0.747   0.268
 1622.0   -0.749   0.272
 1623.0   -0.750   0.276
 1624.0   -0.752   0.280
 1625.0   -0.753   0.284
 1626.0   -0.755   0.287
 1627.0   -0.757   0.291
 1628.0   -0.758   0.295
 1629.0   -0.760   0.299
 1630.0   -0.761   0.303
 1631.0   -0.763   0.307
 1632.0   -0.764   0.311
 1633.0   -0.765   0.315
 1634.0   -0.767   0.319
 1635.0   -0.768   0.323
 1636.0   -0.769   0.327
 1637.0   -0.771   0.331
 1638.0   -0.772   0.335
 1639.0   -0.774   0.339
 1640.0   -0.775   0.344
 1641.0   -0.777   0.348
 1642.0   -0.779   0.352
 1643.0   -0.781   0.356
 1644.0   -0.783   0.361
 1645.0   -0.786   0.365
 1646.0   -0.788   0.369
 1647.0   -0.790   0.374
 1648.0   -0.793   0.378
 1649.0   -0.795   0.382
 1650.0   -0.798   0.387
 1651.0   -0.795   0.391
 1652.0   -0.793   0.395
 1653.0   -0.791   0.399
 1654.0   -0.789   0.403
 1655.0   -0.786   0.407
 1656.0   -0.784   0.411
 1657.0   -0.783   0.416
 1658.0   -0.781   0.420
 1659.0   -0.779   0.424
 1660.0   -0.778   0.428
 1661.0   -0.777   0.432
 1662.0   -0.776   0.437
 1663.0   -0.776   0.441
 1664.0   -0.775   0.445
 1665.0   -0.775   0.450
 1666.0   -0.775   0.454
 1667.0   -0.774   0.458
 1668.0   -0.774   0.462
 1669.0   -0.774   0.467
 1670.0   -0.774   0.471
 1671.0   -0.773   0.475
 1672.0   -0.773   0.479
 1673.0   -0.772   0.483
 1674.0   -0.772   0.488
 1675.0   -0.771   0.492
 1676.0   -0.771   0.496
 1677.0   -0.771   0.500
 1678.0   -0.771   0.504
 1679.0   -0.771   0.508
 1680.0   -0.772   0.512
 1681.0   -0.772   0.516
 1682.0   -0.773   0.520
 1683.0   -0.775   0.524
 1684.0   -0.776   0.528
 1685.0   -0.778   0.532
 1686.0   -0.780   0.535
 1687.0   -0.781   0.539
 1688.0   -0.783   0.543
 1689.0   -0.785   0.547
 1690.0   -0.787   0.550
 1691.0   -0.790   0.554
 1692.0   -0.792   0.557
 1693.0   -0.794   0.561
 1694.0   -0.796   0.564
 1695.0   -0.798   0.568
 1696.0   -0.801   0.571
 1697.0   -0.803   0.574
 1698.0   -0.805   0.577
 1699.0   -0.808   0.580
 1700.0   -0.811   0.583
 1701.0   -0.814   0.586
 1702.0   -0.817   0.589
 1703.0   -0.820   0.592
 1704.0   -0.823   0.595
 1705.0   -0.827   0.597
 1706.0   -0.830   0.600
 1707.0   -0.834   0.603
 1708.0   -0.838   0.605
 1709.0   -0.842   0.607
 1710.0   -0.846   0.610
 1711.0   -0.850   0.612
 1712.0   -0.855   0.614
 1713.0   -0.859   0.616
 1714.0   -0.864   0.618
 1715.0   -0.868   0.620
 1716.0   -0.873   0.622
 1717.0   -0.878   0.623
 1718.0   -0.882   0.625
 1719.0   -0.887   0.626
 1720.0   -0.892   0.628
 1721.0   -0.897   0.629
 1722.0   -0.902   0.630
 1723.0   -0.906   0.632
 1724.0   -0.911   0.633
 1725.0   -0.916   0.634
 1726.0   -0.921   0.634
 1727.0   -0.926   0.635
 1728.0   -0.931   0.636
 1729.0   -0.936   0.637
 1730.0   -0.941   0.637
 1731.0   -0.946   0.638
 1732.0   -0.952   0.638
 1733.0   -0.957   0.638
 1734.0   -0.962   0.639
 1735.0   -0.967   0.639
 1736.0   -0.973   0.639
 1737.0   -0.978   0.639
 1738.0   -0.983   0.639
 1739.0   -0.988   0.638
 1740.0   -0.993   0.638
 1741.0   -0.997   0.638
 1742.0   -1.002   0.637
 1743.0   -1.007   0.637
 1744.0   -1.011   0.636
 1745.0   -1.016   0.636
 1746.0   -1.020   0.635
 1747.0   -1.025   0.634
 1748.0   -1.030   0.633
 1749.0   -1.034   0.632
 1750.0   -1.039   0.631
 1751.0   -1.044   0.630
 1752.0   -1.049   0.629
 1753.0   -1.054   0.628
 1754.0   -1.059   0.627
 1755.0   -1.065   0.626
 1756.0   -1.070   0.624
 1757.0   -1.075   0.623
 1758.0   -1.080   0.621
 1759.0   -1.085   0.620
 1760.0   -1.090   0.618
 1761.0   -1.095   0.617
 1762.0   -1.100   0.615
 1763.0   -1.105   0.613
 1764.0   -1.109   0.611
 1765.0   -1.114   0.610
 1766.0   -1.118   0.608
 1767.0   -1.122   0.606
 1768.0   -1.127   0.604
 1769.0   -1.131   0.602
 1770.0   -1.135   0.600
 1771.0   -1.139   0.598
 1772.0   -1.143   0.596
 1773.0   -1.147   0.593
 1774.0   -1.151   0.591
 1775.0   -1.155   0.589
 1776.0   -1.158   0.587
 1777.0   -1.162   0.585
 1778.0   -1.166   0.582
 1779.0   -1.169   0.580
 1780.0   -1.173   0.577
 1781.0   -1.176   0.575
 1782.0   -1.179   0.573
 1783.0   -1.182   0.570
 1784.0   -1.186   0.568
 1785.0   -1.189   0.565
 1786.0   -1.192   0.563
 1787.0   -1.195   0.560
 1788.0   -1.198   0.558
 1789.0   -1.201   0.555
 1790.0   -1.204   0.552
 1791.0   -1.207   0.550
 1792.0   -1.210   0.547
 1793.0   -1.213   0.545
 1794.0   -1.217   0.542
 1795.0   -1.220   0.539
 1796.0   -1.223   0.537
 1797.0   -1.226   0.534
 1798.0   -1.229   0.531
 1799.0   -1.231   0.528
 1800.0   -1.234   0.526
 1801.0   -1.237   0.523
 1802.0   -1.239   0.520
 1803.0   -1.241   0.518
 1804.0   -1.244   0.515
 1805.0   -1.245   0.512
 1806.0   -1.247   0.509
 1807.0   -1.249   0.506
 1808.0   -1.251   0.504
 1809.0   -1.252   0.501
 1810.0   -1.253   0.498
 1811.0   -1.254   0.495
 1812.0   -1.255   0.492
 1813.0   -1.256   0.490
 1814.0   -1.257   0.487
 1815.0   -1.258   0.484
 1816.0   -1.258   0.481
 1817.0   -1.259   0.478
 1818.0   -1.260   0.475
 1819.0   -1.261   0.473
 1820.0   -1.261   0.470
 1821.0   -1.262   0.467
 1822.0   -1.263   0.464
 1823.0   -1.264   0.461
 1824.0   -1.265   0.459
 1825.0   -1.266   0.456
 1826.0   -1.267   0.453
 1827.0   -1.268   0.450
 1828.0   -1.268   0.447
 1829.0   -1.269   0.445
 1830.0   -1.270   0.442
 1831.0   -1.270   0.439
 1832.0   -1.271   0.436
 1833.0   -1.271   0.433
 1834.0   -1.271   0.431
 1835.0   -1.271   0.428
 1836.0   -1.270   0.425
 1837.0   -1.270   0.422
 1838.0   -1.270   0.420
 1839.0   -1.269   0.417
 1840.0   -1.268   0.414
 1841.0   -1.267   0.411
 1842.0   -1.266   0.409
 1843.0   -1.265   0.406
 1844.0   -1.264   0.403
 1845.0   -1.263   0.401
 1846.0   -1.261   0.398
 1847.0   -1.260   0.395
 1848.0   -1.259   0.393
 1849.0   -1.258   0.390
 1850.0   -1.257   0.387
 1851.0   -1.256   0.385
 1852.0   -1.255   0.382
 1853.0   -1.254   0.379
 1854.0   -1.254   0.377
 1855.0   -1.253   0.374
 1856.0   -1.252   0.371
 1857.0   -1.251   0.369
 1858.0   -1.250   0.366
 1859.0   -1.249   0.364
 1860.0   -1.247   0.361
 1861.0   -1.245   0.358
 1862.0   -1.243   0.356
 1863.0   -1.241   0.353
 1864.0   -1.239   0.351
 1865.0   -1.236   0.348
 1866.0   -1.233   0.346
 1867.0   -1.231   0.343
 1868.0   -1.228   0.341
 1869.0   -1.225   0.338
 1870.0   -1.223   0.336
 1871.0   -1.221   0.334
 1872.0   -1.218   0.331
 1873.0   -1.216   0.329
 1874.0   -1.214   0.326
 1875.0   -1.212   0.324
 1876.0   -1.210   0.321
 1877.0   -1.208   0.319
