   W         E2-(pi+_n)
 (MeV)      Re         Im
 1074.0   -0.531392   0.041885
 1075.0   -0.426874   0.033628
 1076.0   -0.322356   0.025371
 1077.0   -0.217838   0.017115
 1078.0   -0.113320   0.008858
 1079.0   -0.008802   0.000601
 1080.0    0.095716  -0.007655
 1081.0    0.200233  -0.015912
 1082.0    0.304751  -0.024169
 1083.0    0.409269  -0.032426
 1084.0    0.513787  -0.040682
 1085.0    0.618305  -0.048939
 1086.0    0.713167  -0.056246
 1087.0    0.808030  -0.063553
 1088.0    0.902892  -0.070861
 1089.0    0.997755  -0.078168
 1090.0    1.092617  -0.085475
 1091.0    1.178891  -0.091916
 1092.0    1.265164  -0.098357
 1093.0    1.351438  -0.104798
 1094.0    1.437711  -0.111239
 1095.0    1.523985  -0.117680
 1096.0    1.602592  -0.123327
 1097.0    1.681200  -0.128974
 1098.0    1.759807  -0.134621
 1099.0    1.838415  -0.140268
 1100.0    1.917022  -0.145915
 1101.0    1.988767  -0.150832
 1102.0    2.060512  -0.155749
 1103.0    2.132258  -0.160666
 1104.0    2.204003  -0.165583
 1105.0    2.275748  -0.170500
 1106.0    2.341333  -0.174743
 1107.0    2.406919  -0.178986
 1108.0    2.472505  -0.183229
 1109.0    2.538090  -0.187472
 1110.0    2.603676  -0.191715
 1111.0    2.663719  -0.195334
 1112.0    2.723762  -0.198952
 1113.0    2.783805  -0.202571
 1114.0    2.843848  -0.206189
 1115.0    2.903891  -0.209808
 1116.0    2.958931  -0.212846
 1117.0    3.013971  -0.215885
 1118.0    3.069011  -0.218923
 1119.0    3.124052  -0.221961
 1120.0    3.179092  -0.224999
 1121.0    3.229608  -0.227496
 1122.0    3.280125  -0.229993
 1123.0    3.330642  -0.232490
 1124.0    3.381158  -0.234988
 1125.0    3.431675  -0.237485
 1126.0    3.478093  -0.239476
 1127.0    3.524510  -0.241467
 1128.0    3.570927  -0.243458
 1129.0    3.617345  -0.245448
 1130.0    3.663762  -0.247439
 1131.0    3.706456  -0.248956
 1132.0    3.749150  -0.250472
 1133.0    3.791844  -0.251988
 1134.0    3.834538  -0.253504
 1135.0    3.877232  -0.255021
 1136.0    3.916537  -0.256090
 1137.0    3.955842  -0.257160
 1138.0    3.995147  -0.258230
 1139.0    4.034452  -0.259299
 1140.0    4.073757  -0.260369
 1141.0    4.109973  -0.261018
 1142.0    4.146188  -0.261666
 1143.0    4.182404  -0.262315
 1144.0    4.218619  -0.262963
 1145.0    4.254834  -0.263612
 1146.0    4.288228  -0.263863
 1147.0    4.321622  -0.264113
 1148.0    4.355016  -0.264364
 1149.0    4.388410  -0.264614
 1150.0    4.421804  -0.264865
 1151.0    4.452615  -0.264738
 1152.0    4.483426  -0.264611
 1153.0    4.514237  -0.264484
 1154.0    4.545048  -0.264357
 1155.0    4.575859  -0.264230
 1156.0    4.604304  -0.263745
 1157.0    4.632749  -0.263260
 1158.0    4.661194  -0.262775
 1159.0    4.689639  -0.262290
 1160.0    4.718084  -0.261804
 1161.0    4.744358  -0.260978
 1162.0    4.770633  -0.260152
 1163.0    4.796907  -0.259325
 1164.0    4.823181  -0.258499
 1165.0    4.849455  -0.257673
 1166.0    4.873734  -0.256521
 1167.0    4.898013  -0.255369
 1168.0    4.922292  -0.254217
 1169.0    4.946571  -0.253066
 1170.0    4.970850  -0.251914
 1171.0    4.993293  -0.250451
 1172.0    5.015737  -0.248988
 1173.0    5.038180  -0.247526
 1174.0    5.060623  -0.246063
 1175.0    5.083066  -0.244600
 1176.0    5.103819  -0.242840
 1177.0    5.124572  -0.241079
 1178.0    5.145324  -0.239318
 1179.0    5.166077  -0.237558
 1180.0    5.186830  -0.235797
 1181.0    5.206023  -0.233751
 1182.0    5.225216  -0.231704
 1183.0    5.244409  -0.229658
 1184.0    5.263602  -0.227611
 1185.0    5.282795  -0.225565
 1186.0    5.300549  -0.223244
 1187.0    5.318302  -0.220923
 1188.0    5.336056  -0.218602
 1189.0    5.353809  -0.216281
 1190.0    5.371563  -0.213960
 1191.0    5.387988  -0.211374
 1192.0    5.404413  -0.208789
 1193.0    5.420839  -0.206203
 1194.0    5.437264  -0.203618
 1195.0    5.453690  -0.201032
 1196.0    5.468886  -0.198191
 1197.0    5.484082  -0.195351
 1198.0    5.499278  -0.192510
 1199.0    5.514475  -0.189669
 1200.0    5.529671  -0.186829
 1201.0    5.543731  -0.183742
 1202.0    5.557791  -0.180654
 1203.0    5.571851  -0.177567
 1204.0    5.585911  -0.174480
 1205.0    5.599971  -0.171393
 1206.0    5.612981  -0.168067
 1207.0    5.625992  -0.164741
 1208.0    5.639002  -0.161415
 1209.0    5.652013  -0.158089
 1210.0    5.665023  -0.154763
 1211.0    5.677059  -0.151200
 1212.0    5.689095  -0.147637
 1213.0    5.701131  -0.144075
 1214.0    5.713167  -0.140512
 1215.0    5.725203  -0.136950
 1216.0    5.736340  -0.133156
 1217.0    5.747477  -0.129362
 1218.0    5.758614  -0.125569
 1219.0    5.769751  -0.121775
 1220.0    5.780887  -0.117981
 1221.0    5.791193  -0.113963
 1222.0    5.801498  -0.109945
 1223.0    5.811803  -0.105927
 1224.0    5.822108  -0.101908
 1225.0    5.832414  -0.097890
 1226.0    5.841951  -0.093654
 1227.0    5.851489  -0.089417
 1228.0    5.861027  -0.085180
 1229.0    5.870565  -0.080944
 1230.0    5.880103  -0.076707
 1231.0    5.888934  -0.072258
 1232.0    5.897766  -0.067809
 1233.0    5.906598  -0.063360
 1234.0    5.915429  -0.058912
 1235.0    5.924261  -0.054463
 1236.0    5.932442  -0.049807
 1237.0    5.940623  -0.045152
 1238.0    5.948804  -0.040497
 1239.0    5.956986  -0.035841
 1240.0    5.965167  -0.031186
 1241.0    5.972755  -0.026330
 1242.0    5.980343  -0.021474
 1243.0    5.987931  -0.016618
 1244.0    5.995519  -0.011762
 1245.0    6.003107  -0.006906
 1246.0    6.010150  -0.001855
 1247.0    6.017194   0.003196
 1248.0    6.024238   0.008247
 1249.0    6.031282   0.013298
 1250.0    6.038325   0.018349
 1251.0    6.044877   0.023589
 1252.0    6.051430   0.028829
 1253.0    6.057982   0.034068
 1254.0    6.064534   0.039308
 1255.0    6.071086   0.044548
 1256.0    6.077195   0.049971
 1257.0    6.083304   0.055394
 1258.0    6.089414   0.060817
 1259.0    6.095523   0.066240
 1260.0    6.101632   0.071663
 1261.0    6.107346   0.077264
 1262.0    6.113059   0.082864
 1263.0    6.118773   0.088464
 1264.0    6.124487   0.094064
 1265.0    6.130201   0.099664
 1266.0    6.135567   0.105435
 1267.0    6.140933   0.111206
 1268.0    6.146298   0.116977
 1269.0    6.151664   0.122748
 1270.0    6.157030   0.128519
 1271.0    6.162095   0.134454
 1272.0    6.167159   0.140390
 1273.0    6.172223   0.146326
 1274.0    6.177287   0.152261
 1275.0    6.182352   0.158197
 1276.0    6.187163   0.164291
 1277.0    6.191975   0.170385
 1278.0    6.196787   0.176478
 1279.0    6.201598   0.182572
 1280.0    6.206410   0.188666
 1281.0    6.211019   0.194911
 1282.0    6.215628   0.201156
 1283.0    6.220237   0.207401
 1284.0    6.224846   0.213646
 1285.0    6.229455   0.219890
 1286.0    6.233911   0.226281
 1287.0    6.238366   0.232672
 1288.0    6.242822   0.239062
 1289.0    6.247277   0.245453
 1290.0    6.251733   0.251843
 1291.0    6.256091   0.258373
 1292.0    6.260449   0.264903
 1293.0    6.264807   0.271433
 1294.0    6.269165   0.277963
 1295.0    6.273523   0.284493
 1296.0    6.277837   0.291158
 1297.0    6.282152   0.297823
 1298.0    6.286467   0.304489
 1299.0    6.290781   0.311154
 1300.0    6.295096   0.317819
 1301.0    6.299426   0.324619
 1302.0    6.303756   0.331418
 1303.0    6.308086   0.338217
 1304.0    6.312416   0.345016
 1305.0    6.316747   0.351815
 1306.0    6.321161   0.358750
 1307.0    6.325576   0.365684
 1308.0    6.329991   0.372618
 1309.0    6.334406   0.379553
 1310.0    6.338821   0.386487
 1311.0    6.343385   0.393566
 1312.0    6.347950   0.400644
 1313.0    6.352515   0.407722
 1314.0    6.357079   0.414800
 1315.0    6.361644   0.421878
 1316.0    6.366433   0.429118
 1317.0    6.371222   0.436357
 1318.0    6.376011   0.443596
 1319.0    6.380799   0.450836
 1320.0    6.385588   0.458075
 1321.0    6.390678   0.465505
 1322.0    6.395767   0.472935
 1323.0    6.400857   0.480365
 1324.0    6.405947   0.487795
 1325.0    6.411036   0.495225
 1326.0    6.416504   0.502891
 1327.0    6.421972   0.510557
 1328.0    6.427439   0.518222
 1329.0    6.432907   0.525888
 1330.0    6.438375   0.533554
 1331.0    6.444293   0.541522
 1332.0    6.450212   0.549489
 1333.0    6.456131   0.557457
 1334.0    6.462050   0.565424
 1335.0    6.467968   0.573392
 1336.0    6.474404   0.581748
 1337.0    6.480839   0.590105
 1338.0    6.487274   0.598462
 1339.0    6.493710   0.606818
 1340.0    6.500145   0.615175
 1341.0    6.507149   0.624029
 1342.0    6.514153   0.632883
 1343.0    6.521157   0.641738
 1344.0    6.528161   0.650592
 1345.0    6.535165   0.659446
 1346.0    6.542769   0.668928
 1347.0    6.550374   0.678409
 1348.0    6.557978   0.687891
 1349.0    6.565583   0.697372
 1350.0    6.573188   0.706854
 1351.0    6.581396   0.717106
 1352.0    6.589604   0.727358
 1353.0    6.597813   0.737611
 1354.0    6.606021   0.747863
 1355.0    6.614229   0.758116
 1356.0    6.623029   0.769287
 1357.0    6.631828   0.780459
 1358.0    6.640628   0.791631
 1359.0    6.649427   0.802803
 1360.0    6.658227   0.813975
 1361.0    6.667578   0.826215
 1362.0    6.676929   0.838456
 1363.0    6.686280   0.850697
 1364.0    6.695631   0.862937
 1365.0    6.704982   0.875178
 1366.0    6.714828   0.888630
 1367.0    6.724674   0.902082
 1368.0    6.734520   0.915535
 1369.0    6.744366   0.928987
 1370.0    6.754212   0.942439
 1371.0    6.764486   0.957236
 1372.0    6.774760   0.972034
 1373.0    6.785034   0.986831
 1374.0    6.795308   1.001629
 1375.0    6.805582   1.016427
 1376.0    6.816211   1.032695
 1377.0    6.826841   1.048963
 1378.0    6.837470   1.065232
 1379.0    6.848099   1.081500
 1380.0    6.858729   1.097769
 1381.0    6.869643   1.115628
 1382.0    6.880558   1.133488
 1383.0    6.891472   1.151348
 1384.0    6.902387   1.169207
 1385.0    6.913301   1.187067
 1386.0    6.924431   1.206640
 1387.0    6.935561   1.226213
 1388.0    6.946691   1.245785
 1389.0    6.957821   1.265358
 1390.0    6.968951   1.284931
 1391.0    6.980231   1.306347
 1392.0    6.991511   1.327763
 1393.0    7.002792   1.349179
 1394.0    7.014072   1.370595
 1395.0    7.025352   1.392011
 1396.0    7.036716   1.415416
 1397.0    7.048080   1.438821
 1398.0    7.059444   1.462227
 1399.0    7.070808   1.485632
 1400.0    7.082173   1.509037
 1401.0    7.093550   1.534599
 1402.0    7.104927   1.560162
 1403.0    7.116304   1.585725
 1404.0    7.127681   1.611287
 1405.0    7.139058   1.636850
 1406.0    7.150363   1.664768
 1407.0    7.161669   1.692686
 1408.0    7.172975   1.720605
 1409.0    7.184281   1.748523
 1410.0    7.195587   1.776441
 1411.0    7.206713   1.806948
 1412.0    7.217839   1.837455
 1413.0    7.228966   1.867962
 1414.0    7.240092   1.898469
 1415.0    7.251218   1.928976
 1416.0    7.262020   1.962345
 1417.0    7.272822   1.995714
 1418.0    7.283624   2.029082
 1419.0    7.294426   2.062451
 1420.0    7.305227   2.095820
 1421.0    7.315508   2.132365
 1422.0    7.325788   2.168910
 1423.0    7.336068   2.205456
 1424.0    7.346348   2.242001
 1425.0    7.356629   2.278546
 1426.0    7.366116   2.318626
 1427.0    7.375602   2.358706
 1428.0    7.385089   2.398786
 1429.0    7.394576   2.438866
 1430.0    7.404063   2.478946
 1431.0    7.412386   2.522957
 1432.0    7.420708   2.566969
 1433.0    7.429030   2.610980
 1434.0    7.437352   2.654992
 1435.0    7.445675   2.699003
 1436.0    7.452331   2.747367
 1437.0    7.458987   2.795730
 1438.0    7.465643   2.844094
 1439.0    7.472299   2.892457
 1440.0    7.478955   2.940821
 1441.0    7.483279   2.993966
 1442.0    7.487603   3.047111
 1443.0    7.491927   3.100256
 1444.0    7.496252   3.153402
 1445.0    7.500576   3.206547
 1446.0    7.501694   3.264873
 1447.0    7.502812   3.323198
 1448.0    7.503930   3.381524
 1449.0    7.505048   3.439850
 1450.0    7.506166   3.498176
 1451.0    7.502956   3.561992
 1452.0    7.499746   3.625808
 1453.0    7.496536   3.689624
 1454.0    7.493326   3.753441
 1455.0    7.490116   3.817257
 1456.0    7.481173   3.886702
 1457.0    7.472230   3.956147
 1458.0    7.463287   4.025592
 1459.0    7.454343   4.095037
 1460.0    7.445400   4.164482
 1461.0    7.429025   4.239388
 1462.0    7.412650   4.314294
 1463.0    7.396274   4.389199
 1464.0    7.379899   4.464105
 1465.0    7.363523   4.539011
 1466.0    7.337747   4.618760
 1467.0    7.311971   4.698509
 1468.0    7.286195   4.778258
 1469.0    7.260419   4.858007
 1470.0    7.234643   4.937756
 1471.0    7.197337   5.021076
 1472.0    7.160031   5.104396
 1473.0    7.122725   5.187715
 1474.0    7.085420   5.271035
 1475.0    7.048114   5.354355
 1476.0    6.997193   5.439148
 1477.0    6.946273   5.523942
 1478.0    6.895352   5.608735
 1479.0    6.844432   5.693529
 1480.0    6.793511   5.778322
 1481.0    6.727292   5.861534
 1482.0    6.661072   5.944746
 1483.0    6.594853   6.027957
 1484.0    6.528634   6.111169
 1485.0    6.462414   6.194381
 1486.0    6.380067   6.272040
 1487.0    6.297720   6.349699
 1488.0    6.215373   6.427357
 1489.0    6.133025   6.505016
 1490.0    6.050678   6.582675
 1491.0    5.952721   6.650199
 1492.0    5.854764   6.717724
 1493.0    5.756808   6.785248
 1494.0    5.658851   6.852772
 1495.0    5.560894   6.920297
 1496.0    5.449576   6.973070
 1497.0    5.338258   7.025843
 1498.0    5.226939   7.078617
 1499.0    5.115621   7.131390
 1500.0    5.004303   7.184163
 1501.0    4.883641   7.218346
 1502.0    4.762979   7.252529
 1503.0    4.642317   7.286711
 1504.0    4.521655   7.320894
 1505.0    4.400992   7.355077
 1506.0    4.276357   7.368439
 1507.0    4.151722   7.381801
 1508.0    4.027087   7.395163
 1509.0    3.902452   7.408525
 1510.0    3.777817   7.421887
 1511.0    3.655102   7.414303
 1512.0    3.532387   7.406720
 1513.0    3.409672   7.399137
 1514.0    3.286958   7.391554
 1515.0    3.164243   7.383971
 1516.0    3.048852   7.357433
 1517.0    2.933461   7.330894
 1518.0    2.818071   7.304356
 1519.0    2.702680   7.277818
 1520.0    2.587289   7.251280
 1521.0    2.483319   7.209375
 1522.0    2.379349   7.167470
 1523.0    2.275379   7.125566
 1524.0    2.171409   7.083661
 1525.0    2.067439   7.041756
 1526.0    1.977282   6.988888
 1527.0    1.887124   6.936020
 1528.0    1.796967   6.883152
 1529.0    1.706810   6.830284
 1530.0    1.616653   6.777415
 1531.0    1.541001   6.717990
 1532.0    1.465350   6.658564
 1533.0    1.389699   6.599139
 1534.0    1.314047   6.539714
 1535.0    1.238396   6.480288
 1536.0    1.176627   6.418160
 1537.0    1.114859   6.356031
 1538.0    1.053091   6.293903
 1539.0    0.991323   6.231774
 1540.0    0.929554   6.169646
 1541.0    0.880183   6.107810
 1542.0    0.830812   6.045974
 1543.0    0.781441   5.984138
 1544.0    0.732070   5.922302
 1545.0    0.682699   5.860466
 1546.0    0.643818   5.801023
 1547.0    0.604937   5.741579
 1548.0    0.566056   5.682135
 1549.0    0.527176   5.622692
 1550.0    0.488295   5.563248
 1551.0    0.457913   5.507503
 1552.0    0.427532   5.451758
 1553.0    0.397150   5.396012
 1554.0    0.366769   5.340267
 1555.0    0.336387   5.284522
 1556.0    0.312648   5.233144
 1557.0    0.288909   5.181766
 1558.0    0.265169   5.130388
 1559.0    0.241430   5.079010
 1560.0    0.217691   5.027632
 1561.0    0.198949   4.980822
 1562.0    0.180206   4.934011
 1563.0    0.161464   4.887200
 1564.0    0.142721   4.840389
 1565.0    0.123979   4.793578
 1566.0    0.108852   4.751255
 1567.0    0.093726   4.708932
 1568.0    0.078600   4.666609
 1569.0    0.063473   4.624285
 1570.0    0.048347   4.581962
 1571.0    0.035730   4.543836
 1572.0    0.023113   4.505709
 1573.0    0.010496   4.467583
 1574.0   -0.002121   4.429457
 1575.0   -0.014738   4.391330
 1576.0   -0.025727   4.357007
 1577.0   -0.036715   4.322683
 1578.0   -0.047704   4.288360
 1579.0   -0.058693   4.254036
 1580.0   -0.069681   4.219713
 1581.0   -0.079720   4.188745
 1582.0   -0.089760   4.157778
 1583.0   -0.099799   4.126810
 1584.0   -0.109838   4.095843
 1585.0   -0.119877   4.064876
 1586.0   -0.129481   4.036807
 1587.0   -0.139084   4.008739
 1588.0   -0.148688   3.980670
 1589.0   -0.158292   3.952602
 1590.0   -0.167895   3.924534
 1591.0   -0.177443   3.898914
 1592.0   -0.186991   3.873295
 1593.0   -0.196539   3.847675
 1594.0   -0.206087   3.822056
 1595.0   -0.215635   3.796436
 1596.0   -0.225395   3.772842
 1597.0   -0.235155   3.749248
 1598.0   -0.244915   3.725654
 1599.0   -0.254675   3.702060
 1600.0   -0.264435   3.678466
 1601.0   -0.274595   3.656496
 1602.0   -0.284756   3.634526
 1603.0   -0.294916   3.612556
 1604.0   -0.305077   3.590586
 1605.0   -0.315237   3.568617
 1606.0   -0.325906   3.547911
 1607.0   -0.336574   3.527205
 1608.0   -0.347242   3.506500
 1609.0   -0.357910   3.485794
 1610.0   -0.368579   3.465089
 1611.0   -0.379815   3.445316
 1612.0   -0.391051   3.425544
 1613.0   -0.402287   3.405772
 1614.0   -0.413524   3.386000
 1615.0   -0.424760   3.366227
 1616.0   -0.436576   3.347093
 1617.0   -0.448392   3.327958
 1618.0   -0.460209   3.308824
 1619.0   -0.472025   3.289689
 1620.0   -0.483841   3.270555
 1621.0   -0.496210   3.251798
 1622.0   -0.508579   3.233040
 1623.0   -0.520948   3.214283
 1624.0   -0.533317   3.195526
 1625.0   -0.545686   3.176769
 1626.0   -0.558558   3.158156
 1627.0   -0.571431   3.139544
 1628.0   -0.584303   3.120931
 1629.0   -0.597175   3.102318
 1630.0   -0.610047   3.083706
 1631.0   -0.623348   3.065037
 1632.0   -0.636649   3.046368
 1633.0   -0.649950   3.027699
 1634.0   -0.663250   3.009030
 1635.0   -0.676551   2.990361
 1636.0   -0.690184   2.971466
 1637.0   -0.703817   2.952571
 1638.0   -0.717450   2.933676
 1639.0   -0.731083   2.914782
 1640.0   -0.744716   2.895887
 1641.0   -0.758571   2.876627
 1642.0   -0.772426   2.857367
 1643.0   -0.786281   2.838107
 1644.0   -0.800136   2.818848
 1645.0   -0.813991   2.799588
 1646.0   -0.827918   2.779865
 1647.0   -0.841844   2.760143
 1648.0   -0.855770   2.740420
 1649.0   -0.869696   2.720697
 1650.0   -0.883623   2.700975
 1651.0   -0.897565   2.680684
 1652.0   -0.911507   2.660394
 1653.0   -0.925450   2.640103
 1654.0   -0.939392   2.619813
 1655.0   -0.953335   2.599522
 1656.0   -0.967092   2.578645
 1657.0   -0.980849   2.557768
 1658.0   -0.994606   2.536891
 1659.0   -1.008364   2.516014
 1660.0   -1.022121   2.495137
 1661.0   -1.035566   2.473657
 1662.0   -1.049012   2.452177
 1663.0   -1.062457   2.430697
 1664.0   -1.075903   2.409217
 1665.0   -1.089348   2.387737
 1666.0   -1.102369   2.365628
 1667.0   -1.115389   2.343519
 1668.0   -1.128410   2.321410
 1669.0   -1.141431   2.299301
 1670.0   -1.154451   2.277193
 1671.0   -1.166909   2.254537
 1672.0   -1.179367   2.231882
 1673.0   -1.191824   2.209227
 1674.0   -1.204282   2.186572
 1675.0   -1.216739   2.163917
 1676.0   -1.228528   2.140759
 1677.0   -1.240316   2.117602
 1678.0   -1.252105   2.094444
 1679.0   -1.263893   2.071286
 1680.0   -1.275682   2.048129
 1681.0   -1.286705   2.024548
 1682.0   -1.297728   2.000968
 1683.0   -1.308751   1.977387
 1684.0   -1.319774   1.953807
 1685.0   -1.330797   1.930227
 1686.0   -1.340973   1.906317
 1687.0   -1.351150   1.882408
 1688.0   -1.361327   1.858498
 1689.0   -1.371504   1.834589
 1690.0   -1.381681   1.810679
 1691.0   -1.390949   1.786542
 1692.0   -1.400217   1.762405
 1693.0   -1.409485   1.738268
 1694.0   -1.418753   1.714131
 1695.0   -1.428021   1.689994
 1696.0   -1.436336   1.665732
 1697.0   -1.444651   1.641471
 1698.0   -1.452965   1.617210
 1699.0   -1.461280   1.592948
 1700.0   -1.469595   1.568687
 1701.0   -1.476928   1.544403
 1702.0   -1.484260   1.520119
 1703.0   -1.491593   1.495835
 1704.0   -1.498925   1.471551
 1705.0   -1.506258   1.447267
 1706.0   -1.512593   1.423055
 1707.0   -1.518929   1.398843
 1708.0   -1.525264   1.374632
 1709.0   -1.531600   1.350420
 1710.0   -1.537935   1.326208
 1711.0   -1.543272   1.302139
 1712.0   -1.548608   1.278070
 1713.0   -1.553945   1.254000
 1714.0   -1.559281   1.229931
 1715.0   -1.564618   1.205862
 1716.0   -1.568956   1.182018
