   W         E4+(pi+_n)
 (MeV)      Re         Im
 1074.0   -0.000959   0.000061
 1075.0   -0.000796   0.000051
 1076.0   -0.000633   0.000040
 1077.0   -0.000470   0.000030
 1078.0   -0.000307   0.000020
 1079.0   -0.000144   0.000009
 1080.0    0.000020  -0.000001
 1081.0    0.000183  -0.000012
 1082.0    0.000346  -0.000022
 1083.0    0.000509  -0.000032
 1084.0    0.000672  -0.000043
 1085.0    0.000835  -0.000053
 1086.0    0.001200  -0.000077
 1087.0    0.001565  -0.000100
 1088.0    0.001930  -0.000123
 1089.0    0.002295  -0.000146
 1090.0    0.002661  -0.000170
 1091.0    0.003183  -0.000203
 1092.0    0.003706  -0.000236
 1093.0    0.004229  -0.000270
 1094.0    0.004752  -0.000303
 1095.0    0.005275  -0.000336
 1096.0    0.005920  -0.000377
 1097.0    0.006564  -0.000418
 1098.0    0.007209  -0.000459
 1099.0    0.007854  -0.000501
 1100.0    0.008499  -0.000542
 1101.0    0.009236  -0.000589
 1102.0    0.009973  -0.000636
 1103.0    0.010710  -0.000683
 1104.0    0.011447  -0.000730
 1105.0    0.012185  -0.000777
 1106.0    0.012990  -0.000828
 1107.0    0.013796  -0.000879
 1108.0    0.014602  -0.000931
 1109.0    0.015407  -0.000982
 1110.0    0.016213  -0.001033
 1111.0    0.017068  -0.001088
 1112.0    0.017922  -0.001142
 1113.0    0.018777  -0.001197
 1114.0    0.019632  -0.001251
 1115.0    0.020486  -0.001306
 1116.0    0.021374  -0.001362
 1117.0    0.022262  -0.001419
 1118.0    0.023149  -0.001476
 1119.0    0.024037  -0.001532
 1120.0    0.024925  -0.001589
 1121.0    0.025832  -0.001647
 1122.0    0.026740  -0.001704
 1123.0    0.027648  -0.001762
 1124.0    0.028555  -0.001820
 1125.0    0.029463  -0.001878
 1126.0    0.030380  -0.001936
 1127.0    0.031297  -0.001995
 1128.0    0.032214  -0.002053
 1129.0    0.033131  -0.002112
 1130.0    0.034048  -0.002170
 1131.0    0.034966  -0.002229
 1132.0    0.035884  -0.002287
 1133.0    0.036802  -0.002346
 1134.0    0.037720  -0.002404
 1135.0    0.038638  -0.002463
 1136.0    0.039550  -0.002521
 1137.0    0.040462  -0.002579
 1138.0    0.041374  -0.002637
 1139.0    0.042286  -0.002695
 1140.0    0.043198  -0.002753
 1141.0    0.044098  -0.002811
 1142.0    0.044999  -0.002868
 1143.0    0.045899  -0.002926
 1144.0    0.046800  -0.002983
 1145.0    0.047700  -0.003040
 1146.0    0.048585  -0.003097
 1147.0    0.049470  -0.003153
 1148.0    0.050354  -0.003210
 1149.0    0.051239  -0.003266
 1150.0    0.052123  -0.003322
 1151.0    0.052989  -0.003378
 1152.0    0.053854  -0.003433
 1153.0    0.054719  -0.003488
 1154.0    0.055585  -0.003543
 1155.0    0.056450  -0.003598
 1156.0    0.057293  -0.003652
 1157.0    0.058137  -0.003706
 1158.0    0.058980  -0.003759
 1159.0    0.059823  -0.003813
 1160.0    0.060667  -0.003867
 1161.0    0.061486  -0.003919
 1162.0    0.062305  -0.003971
 1163.0    0.063125  -0.004024
 1164.0    0.063944  -0.004076
 1165.0    0.064763  -0.004128
 1166.0    0.065557  -0.004179
 1167.0    0.066351  -0.004229
 1168.0    0.067145  -0.004280
 1169.0    0.067939  -0.004330
 1170.0    0.068733  -0.004381
 1171.0    0.069500  -0.004430
 1172.0    0.070267  -0.004479
 1173.0    0.071035  -0.004528
 1174.0    0.071802  -0.004576
 1175.0    0.072570  -0.004625
 1176.0    0.073310  -0.004673
 1177.0    0.074050  -0.004720
 1178.0    0.074790  -0.004767
 1179.0    0.075530  -0.004814
 1180.0    0.076270  -0.004861
 1181.0    0.076983  -0.004907
 1182.0    0.077696  -0.004952
 1183.0    0.078408  -0.004997
 1184.0    0.079121  -0.005043
 1185.0    0.079834  -0.005088
 1186.0    0.080519  -0.005132
 1187.0    0.081203  -0.005175
 1188.0    0.081888  -0.005219
 1189.0    0.082573  -0.005263
 1190.0    0.083258  -0.005306
 1191.0    0.083915  -0.005348
 1192.0    0.084573  -0.005390
 1193.0    0.085230  -0.005432
 1194.0    0.085887  -0.005474
 1195.0    0.086545  -0.005516
 1196.0    0.087174  -0.005556
 1197.0    0.087804  -0.005596
 1198.0    0.088434  -0.005636
 1199.0    0.089064  -0.005676
 1200.0    0.089694  -0.005716
 1201.0    0.090297  -0.005754
 1202.0    0.090900  -0.005793
 1203.0    0.091502  -0.005831
 1204.0    0.092105  -0.005869
 1205.0    0.092708  -0.005908
 1206.0    0.093284  -0.005944
 1207.0    0.093860  -0.005981
 1208.0    0.094437  -0.006018
 1209.0    0.095013  -0.006054
 1210.0    0.095589  -0.006091
 1211.0    0.096139  -0.006126
 1212.0    0.096689  -0.006161
 1213.0    0.097240  -0.006196
 1214.0    0.097790  -0.006231
 1215.0    0.098340  -0.006266
 1216.0    0.098865  -0.006299
 1217.0    0.099389  -0.006332
 1218.0    0.099914  -0.006366
 1219.0    0.100439  -0.006399
 1220.0    0.100963  -0.006432
 1221.0    0.101463  -0.006464
 1222.0    0.101963  -0.006496
 1223.0    0.102463  -0.006528
 1224.0    0.102963  -0.006559
 1225.0    0.103463  -0.006591
 1226.0    0.103939  -0.006621
 1227.0    0.104415  -0.006651
 1228.0    0.104890  -0.006682
 1229.0    0.105366  -0.006712
 1230.0    0.105842  -0.006742
 1231.0    0.106294  -0.006771
 1232.0    0.106747  -0.006799
 1233.0    0.107199  -0.006828
 1234.0    0.107651  -0.006857
 1235.0    0.108104  -0.006885
 1236.0    0.108534  -0.006912
 1237.0    0.108963  -0.006940
 1238.0    0.109393  -0.006967
 1239.0    0.109823  -0.006994
 1240.0    0.110252  -0.007021
 1241.0    0.110660  -0.007047
 1242.0    0.111068  -0.007073
 1243.0    0.111476  -0.007098
 1244.0    0.111883  -0.007124
 1245.0    0.112291  -0.007150
 1246.0    0.112678  -0.007174
 1247.0    0.113064  -0.007199
 1248.0    0.113451  -0.007223
 1249.0    0.113838  -0.007247
 1250.0    0.114224  -0.007272
 1251.0    0.114590  -0.007295
 1252.0    0.114956  -0.007318
 1253.0    0.115322  -0.007341
 1254.0    0.115689  -0.007364
 1255.0    0.116055  -0.007387
 1256.0    0.116401  -0.007409
 1257.0    0.116747  -0.007430
 1258.0    0.117094  -0.007452
 1259.0    0.117440  -0.007474
 1260.0    0.117787  -0.007496
 1261.0    0.118114  -0.007516
 1262.0    0.118441  -0.007537
 1263.0    0.118769  -0.007557
 1264.0    0.119096  -0.007577
 1265.0    0.119424  -0.007598
 1266.0    0.119733  -0.007617
 1267.0    0.120042  -0.007636
 1268.0    0.120351  -0.007656
 1269.0    0.120660  -0.007675
 1270.0    0.120969  -0.007694
 1271.0    0.121260  -0.007712
 1272.0    0.121551  -0.007730
 1273.0    0.121843  -0.007748
 1274.0    0.122134  -0.007767
 1275.0    0.122425  -0.007785
 1276.0    0.122700  -0.007802
 1277.0    0.122974  -0.007819
 1278.0    0.123249  -0.007835
 1279.0    0.123523  -0.007852
 1280.0    0.123798  -0.007869
 1281.0    0.124056  -0.007885
 1282.0    0.124314  -0.007901
 1283.0    0.124572  -0.007917
 1284.0    0.124831  -0.007933
 1285.0    0.125089  -0.007949
 1286.0    0.125332  -0.007964
 1287.0    0.125574  -0.007978
 1288.0    0.125817  -0.007993
 1289.0    0.126060  -0.008008
 1290.0    0.126303  -0.008023
 1291.0    0.126530  -0.008037
 1292.0    0.126758  -0.008050
 1293.0    0.126985  -0.008064
 1294.0    0.127213  -0.008078
 1295.0    0.127440  -0.008092
 1296.0    0.127653  -0.008104
 1297.0    0.127866  -0.008117
 1298.0    0.128079  -0.008130
 1299.0    0.128292  -0.008143
 1300.0    0.128505  -0.008156
 1301.0    0.128705  -0.008168
 1302.0    0.128905  -0.008179
 1303.0    0.129104  -0.008191
 1304.0    0.129304  -0.008203
 1305.0    0.129503  -0.008215
 1306.0    0.129689  -0.008226
 1307.0    0.129875  -0.008237
 1308.0    0.130061  -0.008248
 1309.0    0.130247  -0.008259
 1310.0    0.130433  -0.008269
 1311.0    0.130606  -0.008279
 1312.0    0.130779  -0.008289
 1313.0    0.130953  -0.008299
 1314.0    0.131126  -0.008310
 1315.0    0.131299  -0.008320
 1316.0    0.131460  -0.008329
 1317.0    0.131622  -0.008338
 1318.0    0.131783  -0.008347
 1319.0    0.131944  -0.008356
 1320.0    0.132105  -0.008365
 1321.0    0.132255  -0.008374
 1322.0    0.132404  -0.008382
 1323.0    0.132553  -0.008390
 1324.0    0.132703  -0.008399
 1325.0    0.132852  -0.008407
 1326.0    0.132991  -0.008414
 1327.0    0.133129  -0.008422
 1328.0    0.133267  -0.008429
 1329.0    0.133405  -0.008437
 1330.0    0.133544  -0.008444
 1331.0    0.133671  -0.008451
 1332.0    0.133799  -0.008458
 1333.0    0.133926  -0.008464
 1334.0    0.134054  -0.008471
 1335.0    0.134181  -0.008478
 1336.0    0.134298  -0.008484
 1337.0    0.134416  -0.008490
 1338.0    0.134533  -0.008496
 1339.0    0.134650  -0.008502
 1340.0    0.134767  -0.008508
 1341.0    0.134875  -0.008513
 1342.0    0.134982  -0.008518
 1343.0    0.135089  -0.008523
 1344.0    0.135197  -0.008528
 1345.0    0.135304  -0.008534
 1346.0    0.135402  -0.008538
 1347.0    0.135501  -0.008543
 1348.0    0.135599  -0.008547
 1349.0    0.135697  -0.008552
 1350.0    0.135795  -0.008556
 1351.0    0.135884  -0.008560
 1352.0    0.135972  -0.008564
 1353.0    0.136061  -0.008568
 1354.0    0.136149  -0.008571
 1355.0    0.136238  -0.008575
 1356.0    0.136318  -0.008578
 1357.0    0.136399  -0.008581
 1358.0    0.136479  -0.008584
 1359.0    0.136559  -0.008587
 1360.0    0.136640  -0.008591
 1361.0    0.136712  -0.008593
 1362.0    0.136784  -0.008595
 1363.0    0.136856  -0.008598
 1364.0    0.136928  -0.008600
 1365.0    0.137000  -0.008603
 1366.0    0.137064  -0.008605
 1367.0    0.137128  -0.008606
 1368.0    0.137192  -0.008608
 1369.0    0.137256  -0.008610
 1370.0    0.137320  -0.008612
 1371.0    0.137377  -0.008613
 1372.0    0.137433  -0.008614
 1373.0    0.137490  -0.008615
 1374.0    0.137546  -0.008616
 1375.0    0.137603  -0.008618
 1376.0    0.137652  -0.008618
 1377.0    0.137701  -0.008619
 1378.0    0.137750  -0.008619
 1379.0    0.137800  -0.008620
 1380.0    0.137849  -0.008620
 1381.0    0.137891  -0.008620
 1382.0    0.137934  -0.008620
 1383.0    0.137976  -0.008620
 1384.0    0.138018  -0.008620
 1385.0    0.138061  -0.008620
 1386.0    0.138096  -0.008620
 1387.0    0.138131  -0.008619
 1388.0    0.138167  -0.008618
 1389.0    0.138202  -0.008618
 1390.0    0.138238  -0.008617
 1391.0    0.138267  -0.008616
 1392.0    0.138296  -0.008615
 1393.0    0.138326  -0.008613
 1394.0    0.138355  -0.008612
 1395.0    0.138384  -0.008611
 1396.0    0.138408  -0.008609
 1397.0    0.138431  -0.008608
 1398.0    0.138454  -0.008606
 1399.0    0.138477  -0.008604
 1400.0    0.138500  -0.008602
 1401.0    0.138518  -0.008600
 1402.0    0.138535  -0.008598
 1403.0    0.138553  -0.008595
 1404.0    0.138570  -0.008593
 1405.0    0.138587  -0.008591
 1406.0    0.138599  -0.008588
 1407.0    0.138611  -0.008585
 1408.0    0.138623  -0.008582
 1409.0    0.138635  -0.008580
 1410.0    0.138646  -0.008577
 1411.0    0.138653  -0.008573
 1412.0    0.138659  -0.008570
 1413.0    0.138666  -0.008567
 1414.0    0.138672  -0.008563
 1415.0    0.138679  -0.008560
 1416.0    0.138680  -0.008556
 1417.0    0.138681  -0.008552
 1418.0    0.138683  -0.008548
 1419.0    0.138684  -0.008544
 1420.0    0.138686  -0.008541
 1421.0    0.138682  -0.008536
 1422.0    0.138679  -0.008532
 1423.0    0.138675  -0.008527
 1424.0    0.138672  -0.008523
 1425.0    0.138668  -0.008519
 1426.0    0.138660  -0.008514
 1427.0    0.138652  -0.008509
 1428.0    0.138644  -0.008504
 1429.0    0.138636  -0.008499
 1430.0    0.138627  -0.008494
 1431.0    0.138615  -0.008489
 1432.0    0.138602  -0.008484
 1433.0    0.138590  -0.008478
 1434.0    0.138577  -0.008473
 1435.0    0.138565  -0.008468
 1436.0    0.138548  -0.008462
 1437.0    0.138531  -0.008456
 1438.0    0.138514  -0.008450
 1439.0    0.138497  -0.008444
 1440.0    0.138480  -0.008438
 1441.0    0.138459  -0.008432
 1442.0    0.138438  -0.008426
 1443.0    0.138417  -0.008420
 1444.0    0.138396  -0.008413
 1445.0    0.138375  -0.008407
 1446.0    0.138350  -0.008400
 1447.0    0.138325  -0.008394
 1448.0    0.138300  -0.008387
 1449.0    0.138275  -0.008380
 1450.0    0.138251  -0.008373
 1451.0    0.138222  -0.008366
 1452.0    0.138193  -0.008359
 1453.0    0.138165  -0.008352
 1454.0    0.138136  -0.008344
 1455.0    0.138108  -0.008337
 1456.0    0.138076  -0.008330
 1457.0    0.138043  -0.008322
 1458.0    0.138011  -0.008314
 1459.0    0.137979  -0.008307
 1460.0    0.137947  -0.008299
 1461.0    0.137912  -0.008291
 1462.0    0.137876  -0.008283
 1463.0    0.137840  -0.008275
 1464.0    0.137805  -0.008267
 1465.0    0.137769  -0.008259
 1466.0    0.137730  -0.008250
 1467.0    0.137692  -0.008242
 1468.0    0.137653  -0.008233
 1469.0    0.137614  -0.008225
 1470.0    0.137575  -0.008216
 1471.0    0.137533  -0.008207
 1472.0    0.137491  -0.008198
 1473.0    0.137449  -0.008189
 1474.0    0.137408  -0.008180
 1475.0    0.137366  -0.008171
 1476.0    0.137321  -0.008162
 1477.0    0.137276  -0.008153
 1478.0    0.137231  -0.008143
 1479.0    0.137186  -0.008134
 1480.0    0.137141  -0.008125
 1481.0    0.137093  -0.008115
 1482.0    0.137046  -0.008105
 1483.0    0.136998  -0.008095
 1484.0    0.136950  -0.008086
 1485.0    0.136903  -0.008076
 1486.0    0.136852  -0.008066
 1487.0    0.136802  -0.008056
 1488.0    0.136751  -0.008045
 1489.0    0.136701  -0.008035
 1490.0    0.136650  -0.008025
 1491.0    0.136597  -0.008015
 1492.0    0.136544  -0.008004
 1493.0    0.136491  -0.007993
 1494.0    0.136438  -0.007983
 1495.0    0.136385  -0.007972
 1496.0    0.136329  -0.007961
 1497.0    0.136274  -0.007950
 1498.0    0.136218  -0.007939
 1499.0    0.136163  -0.007929
 1500.0    0.136107  -0.007918
 1501.0    0.136049  -0.007906
 1502.0    0.135991  -0.007895
 1503.0    0.135932  -0.007883
 1504.0    0.135874  -0.007872
 1505.0    0.135815  -0.007861
 1506.0    0.135756  -0.007849
 1507.0    0.135696  -0.007837
 1508.0    0.135637  -0.007826
 1509.0    0.135577  -0.007814
 1510.0    0.135518  -0.007803
 1511.0    0.135455  -0.007790
 1512.0    0.135393  -0.007778
 1513.0    0.135331  -0.007766
 1514.0    0.135268  -0.007754
 1515.0    0.135206  -0.007742
 1516.0    0.135142  -0.007730
 1517.0    0.135077  -0.007717
 1518.0    0.135013  -0.007705
 1519.0    0.134949  -0.007692
 1520.0    0.134884  -0.007680
 1521.0    0.134818  -0.007667
 1522.0    0.134752  -0.007654
 1523.0    0.134685  -0.007642
 1524.0    0.134619  -0.007629
 1525.0    0.134553  -0.007616
 1526.0    0.134484  -0.007603
 1527.0    0.134416  -0.007590
 1528.0    0.134348  -0.007577
 1529.0    0.134280  -0.007563
 1530.0    0.134212  -0.007550
 1531.0    0.134142  -0.007537
 1532.0    0.134072  -0.007523
 1533.0    0.134002  -0.007510
 1534.0    0.133932  -0.007496
 1535.0    0.133862  -0.007483
 1536.0    0.133790  -0.007469
 1537.0    0.133718  -0.007455
 1538.0    0.133647  -0.007441
 1539.0    0.133575  -0.007427
 1540.0    0.133503  -0.007414
 1541.0    0.133430  -0.007399
 1542.0    0.133357  -0.007385
 1543.0    0.133283  -0.007371
 1544.0    0.133210  -0.007357
 1545.0    0.133137  -0.007343
 1546.0    0.133062  -0.007328
 1547.0    0.132987  -0.007314
 1548.0    0.132912  -0.007299
 1549.0    0.132837  -0.007285
 1550.0    0.132763  -0.007270
 1551.0    0.132686  -0.007255
 1552.0    0.132610  -0.007241
 1553.0    0.132534  -0.007226
 1554.0    0.132457  -0.007211
 1555.0    0.132381  -0.007196
 1556.0    0.132303  -0.007181
 1557.0    0.132226  -0.007166
 1558.0    0.132148  -0.007151
 1559.0    0.132070  -0.007136
 1560.0    0.131992  -0.007121
 1561.0    0.131913  -0.007105
 1562.0    0.131834  -0.007090
 1563.0    0.131755  -0.007074
 1564.0    0.131676  -0.007059
 1565.0    0.131597  -0.007043
 1566.0    0.131517  -0.007028
 1567.0    0.131436  -0.007012
 1568.0    0.131356  -0.006996
 1569.0    0.131276  -0.006980
 1570.0    0.131195  -0.006965
 1571.0    0.131114  -0.006948
 1572.0    0.131032  -0.006932
 1573.0    0.130951  -0.006916
 1574.0    0.130869  -0.006900
 1575.0    0.130788  -0.006884
 1576.0    0.130705  -0.006868
 1577.0    0.130623  -0.006852
 1578.0    0.130540  -0.006835
 1579.0    0.130457  -0.006819
 1580.0    0.130374  -0.006803
 1581.0    0.130291  -0.006786
 1582.0    0.130207  -0.006769
 1583.0    0.130123  -0.006753
 1584.0    0.130039  -0.006736
 1585.0    0.129956  -0.006719
 1586.0    0.129871  -0.006702
 1587.0    0.129786  -0.006685
 1588.0    0.129701  -0.006669
 1589.0    0.129617  -0.006652
 1590.0    0.129532  -0.006635
 1591.0    0.129446  -0.006618
 1592.0    0.129360  -0.006600
 1593.0    0.129274  -0.006583
 1594.0    0.129189  -0.006566
 1595.0    0.129103  -0.006549
 1596.0    0.129016  -0.006531
 1597.0    0.128929  -0.006514
 1598.0    0.128843  -0.006496
 1599.0    0.128756  -0.006479
 1600.0    0.128669  -0.006461
 1601.0    0.128582  -0.006444
 1602.0    0.128495  -0.006426
 1603.0    0.128408  -0.006408
 1604.0    0.128320  -0.006391
 1605.0    0.128233  -0.006373
 1606.0    0.128144  -0.006355
 1607.0    0.128056  -0.006337
 1608.0    0.127967  -0.006319
 1609.0    0.127879  -0.006301
 1610.0    0.127790  -0.006283
 1611.0    0.127701  -0.006264
 1612.0    0.127612  -0.006246
 1613.0    0.127523  -0.006228
 1614.0    0.127433  -0.006210
 1615.0    0.127344  -0.006191
 1616.0    0.127254  -0.006173
 1617.0    0.127164  -0.006154
 1618.0    0.127075  -0.006136
 1619.0    0.126985  -0.006117
 1620.0    0.126895  -0.006099
 1621.0    0.126804  -0.006080
 1622.0    0.126714  -0.006061
 1623.0    0.126623  -0.006042
 1624.0    0.126532  -0.006023
 1625.0    0.126442  -0.006005
 1626.0    0.126351  -0.005986
 1627.0    0.126259  -0.005967
 1628.0    0.126168  -0.005948
 1629.0    0.126077  -0.005929
 1630.0    0.125986  -0.005910
 1631.0    0.125894  -0.005890
 1632.0    0.125802  -0.005871
 1633.0    0.125710  -0.005852
 1634.0    0.125618  -0.005832
 1635.0    0.125527  -0.005813
 1636.0    0.125434  -0.005794
 1637.0    0.125342  -0.005774
 1638.0    0.125249  -0.005755
 1639.0    0.125157  -0.005735
 1640.0    0.125065  -0.005716
 1641.0    0.124972  -0.005696
 1642.0    0.124879  -0.005676
 1643.0    0.124786  -0.005656
 1644.0    0.124693  -0.005637
 1645.0    0.124600  -0.005617
 1646.0    0.124507  -0.005597
 1647.0    0.124413  -0.005577
 1648.0    0.124320  -0.005557
 1649.0    0.124226  -0.005537
 1650.0    0.124133  -0.005517
 1651.0    0.124039  -0.005497
 1652.0    0.123945  -0.005477
 1653.0    0.123851  -0.005456
 1654.0    0.123757  -0.005436
 1655.0    0.123663  -0.005416
 1656.0    0.123569  -0.005396
 1657.0    0.123475  -0.005375
 1658.0    0.123381  -0.005355
 1659.0    0.123286  -0.005334
 1660.0    0.123192  -0.005314
 1661.0    0.123097  -0.005293
 1662.0    0.123003  -0.005272
 1663.0    0.122908  -0.005252
 1664.0    0.122813  -0.005231
 1665.0    0.122719  -0.005210
 1666.0    0.122624  -0.005190
 1667.0    0.122528  -0.005169
 1668.0    0.122433  -0.005148
 1669.0    0.122338  -0.005127
 1670.0    0.122243  -0.005106
 1671.0    0.122148  -0.005085
 1672.0    0.122053  -0.005064
 1673.0    0.121957  -0.005043
 1674.0    0.121862  -0.005021
 1675.0    0.121767  -0.005000
 1676.0    0.121671  -0.004979
 1677.0    0.121575  -0.004958
 1678.0    0.121480  -0.004936
 1679.0    0.121384  -0.004915
 1680.0    0.121288  -0.004894
 1681.0    0.121192  -0.004872
 1682.0    0.121096  -0.004851
 1683.0    0.121001  -0.004829
 1684.0    0.120905  -0.004807
 1685.0    0.120809  -0.004786
 1686.0    0.120712  -0.004764
 1687.0    0.120616  -0.004742
 1688.0    0.120520  -0.004721
 1689.0    0.120424  -0.004699
 1690.0    0.120328  -0.004677
 1691.0    0.120231  -0.004655
 1692.0    0.120135  -0.004633
 1693.0    0.120039  -0.004611
 1694.0    0.119942  -0.004589
 1695.0    0.119846  -0.004567
 1696.0    0.119749  -0.004545
 1697.0    0.119653  -0.004523
 1698.0    0.119556  -0.004500
 1699.0    0.119460  -0.004478
 1700.0    0.119363  -0.004456
 1701.0    0.119266  -0.004434
 1702.0    0.119170  -0.004411
 1703.0    0.119073  -0.004389
 1704.0    0.118976  -0.004366
 1705.0    0.118880  -0.004344
 1706.0    0.118783  -0.004321
 1707.0    0.118686  -0.004299
 1708.0    0.118589  -0.004276
 1709.0    0.118492  -0.004253
 1710.0    0.118395  -0.004231
 1711.0    0.118298  -0.004208
 1712.0    0.118201  -0.004185
 1713.0    0.118104  -0.004162
 1714.0    0.118007  -0.004139
 1715.0    0.117910  -0.004116
 1716.0    0.117813  -0.004093
