   W         E6-(pi+_n)
 (MeV)      Re         Im
 1074.0   -0.000020   0.000001
 1075.0   -0.000017   0.000001
 1076.0   -0.000013   0.000001
 1077.0   -0.000010   0.000001
 1078.0   -0.000007   0.000000
 1079.0   -0.000003   0.000000
 1080.0    0.000000  -0.000000
 1081.0    0.000003  -0.000000
 1082.0    0.000007  -0.000000
 1083.0    0.000010  -0.000001
 1084.0    0.000013  -0.000001
 1085.0    0.000017  -0.000001
 1086.0    0.000033  -0.000002
 1087.0    0.000049  -0.000003
 1088.0    0.000065  -0.000004
 1089.0    0.000081  -0.000005
 1090.0    0.000097  -0.000006
 1091.0    0.000133  -0.000008
 1092.0    0.000169  -0.000011
 1093.0    0.000204  -0.000013
 1094.0    0.000240  -0.000015
 1095.0    0.000276  -0.000018
 1096.0    0.000336  -0.000021
 1097.0    0.000395  -0.000025
 1098.0    0.000455  -0.000029
 1099.0    0.000515  -0.000033
 1100.0    0.000575  -0.000037
 1101.0    0.000661  -0.000042
 1102.0    0.000747  -0.000048
 1103.0    0.000832  -0.000053
 1104.0    0.000918  -0.000059
 1105.0    0.001004  -0.000064
 1106.0    0.001117  -0.000071
 1107.0    0.001230  -0.000078
 1108.0    0.001343  -0.000086
 1109.0    0.001455  -0.000093
 1110.0    0.001568  -0.000100
 1111.0    0.001708  -0.000109
 1112.0    0.001847  -0.000118
 1113.0    0.001986  -0.000127
 1114.0    0.002126  -0.000135
 1115.0    0.002265  -0.000144
 1116.0    0.002430  -0.000155
 1117.0    0.002595  -0.000165
 1118.0    0.002760  -0.000176
 1119.0    0.002925  -0.000186
 1120.0    0.003090  -0.000197
 1121.0    0.003279  -0.000209
 1122.0    0.003468  -0.000221
 1123.0    0.003657  -0.000233
 1124.0    0.003846  -0.000245
 1125.0    0.004035  -0.000257
 1126.0    0.004246  -0.000271
 1127.0    0.004457  -0.000284
 1128.0    0.004668  -0.000298
 1129.0    0.004879  -0.000311
 1130.0    0.005091  -0.000324
 1131.0    0.005322  -0.000339
 1132.0    0.005553  -0.000354
 1133.0    0.005785  -0.000369
 1134.0    0.006016  -0.000383
 1135.0    0.006248  -0.000398
 1136.0    0.006497  -0.000414
 1137.0    0.006747  -0.000430
 1138.0    0.006996  -0.000446
 1139.0    0.007246  -0.000462
 1140.0    0.007495  -0.000478
 1141.0    0.007761  -0.000495
 1142.0    0.008026  -0.000511
 1143.0    0.008292  -0.000528
 1144.0    0.008557  -0.000545
 1145.0    0.008823  -0.000562
 1146.0    0.009103  -0.000580
 1147.0    0.009382  -0.000598
 1148.0    0.009662  -0.000616
 1149.0    0.009941  -0.000634
 1150.0    0.010221  -0.000651
 1151.0    0.010512  -0.000670
 1152.0    0.010804  -0.000688
 1153.0    0.011096  -0.000707
 1154.0    0.011387  -0.000726
 1155.0    0.011679  -0.000744
 1156.0    0.011980  -0.000763
 1157.0    0.012282  -0.000783
 1158.0    0.012584  -0.000802
 1159.0    0.012885  -0.000821
 1160.0    0.013187  -0.000840
 1161.0    0.013497  -0.000860
 1162.0    0.013807  -0.000880
 1163.0    0.014117  -0.000900
 1164.0    0.014427  -0.000919
 1165.0    0.014737  -0.000939
 1166.0    0.015054  -0.000959
 1167.0    0.015371  -0.000979
 1168.0    0.015688  -0.001000
 1169.0    0.016005  -0.001020
 1170.0    0.016321  -0.001040
 1171.0    0.016643  -0.001061
 1172.0    0.016965  -0.001081
 1173.0    0.017287  -0.001102
 1174.0    0.017609  -0.001122
 1175.0    0.017931  -0.001143
 1176.0    0.018257  -0.001163
 1177.0    0.018583  -0.001184
 1178.0    0.018908  -0.001205
 1179.0    0.019234  -0.001226
 1180.0    0.019560  -0.001246
 1181.0    0.019888  -0.001267
 1182.0    0.020216  -0.001288
 1183.0    0.020545  -0.001309
 1184.0    0.020873  -0.001330
 1185.0    0.021201  -0.001351
 1186.0    0.021531  -0.001372
 1187.0    0.021860  -0.001393
 1188.0    0.022190  -0.001414
 1189.0    0.022519  -0.001435
 1190.0    0.022849  -0.001456
 1191.0    0.023179  -0.001477
 1192.0    0.023508  -0.001498
 1193.0    0.023838  -0.001519
 1194.0    0.024168  -0.001540
 1195.0    0.024498  -0.001561
 1196.0    0.024827  -0.001582
 1197.0    0.025156  -0.001603
 1198.0    0.025485  -0.001624
 1199.0    0.025814  -0.001645
 1200.0    0.026143  -0.001666
 1201.0    0.026471  -0.001687
 1202.0    0.026799  -0.001707
 1203.0    0.027126  -0.001728
 1204.0    0.027454  -0.001749
 1205.0    0.027781  -0.001770
 1206.0    0.028107  -0.001791
 1207.0    0.028432  -0.001811
 1208.0    0.028757  -0.001832
 1209.0    0.029082  -0.001853
 1210.0    0.029408  -0.001874
 1211.0    0.029730  -0.001894
 1212.0    0.030052  -0.001915
 1213.0    0.030374  -0.001935
 1214.0    0.030697  -0.001956
 1215.0    0.031019  -0.001976
 1216.0    0.031338  -0.001996
 1217.0    0.031656  -0.002017
 1218.0    0.031975  -0.002037
 1219.0    0.032294  -0.002057
 1220.0    0.032612  -0.002078
 1221.0    0.032927  -0.002098
 1222.0    0.033241  -0.002118
 1223.0    0.033556  -0.002138
 1224.0    0.033871  -0.002158
 1225.0    0.034185  -0.002178
 1226.0    0.034495  -0.002197
 1227.0    0.034805  -0.002217
 1228.0    0.035115  -0.002237
 1229.0    0.035425  -0.002257
 1230.0    0.035735  -0.002276
 1231.0    0.036040  -0.002296
 1232.0    0.036345  -0.002315
 1233.0    0.036650  -0.002335
 1234.0    0.036955  -0.002354
 1235.0    0.037260  -0.002373
 1236.0    0.037560  -0.002393
 1237.0    0.037859  -0.002412
 1238.0    0.038159  -0.002431
 1239.0    0.038459  -0.002450
 1240.0    0.038758  -0.002469
 1241.0    0.039052  -0.002488
 1242.0    0.039347  -0.002506
 1243.0    0.039641  -0.002525
 1244.0    0.039935  -0.002544
 1245.0    0.040229  -0.002562
 1246.0    0.040517  -0.002581
 1247.0    0.040805  -0.002599
 1248.0    0.041093  -0.002617
 1249.0    0.041382  -0.002636
 1250.0    0.041670  -0.002654
 1251.0    0.041952  -0.002672
 1252.0    0.042234  -0.002690
 1253.0    0.042516  -0.002708
 1254.0    0.042798  -0.002726
 1255.0    0.043080  -0.002744
 1256.0    0.043356  -0.002761
 1257.0    0.043632  -0.002779
 1258.0    0.043908  -0.002796
 1259.0    0.044184  -0.002814
 1260.0    0.044460  -0.002832
 1261.0    0.044729  -0.002849
 1262.0    0.044999  -0.002866
 1263.0    0.045269  -0.002883
 1264.0    0.045538  -0.002900
 1265.0    0.045808  -0.002917
 1266.0    0.046071  -0.002934
 1267.0    0.046334  -0.002951
 1268.0    0.046597  -0.002967
 1269.0    0.046860  -0.002984
 1270.0    0.047123  -0.003001
 1271.0    0.047379  -0.003017
 1272.0    0.047636  -0.003033
 1273.0    0.047892  -0.003050
 1274.0    0.048148  -0.003066
 1275.0    0.048405  -0.003082
 1276.0    0.048655  -0.003098
 1277.0    0.048905  -0.003114
 1278.0    0.049155  -0.003130
 1279.0    0.049405  -0.003146
 1280.0    0.049655  -0.003162
 1281.0    0.049898  -0.003177
 1282.0    0.050141  -0.003193
 1283.0    0.050385  -0.003208
 1284.0    0.050628  -0.003224
 1285.0    0.050871  -0.003239
 1286.0    0.051108  -0.003254
 1287.0    0.051345  -0.003269
 1288.0    0.051581  -0.003284
 1289.0    0.051818  -0.003299
 1290.0    0.052055  -0.003314
 1291.0    0.052285  -0.003329
 1292.0    0.052515  -0.003344
 1293.0    0.052745  -0.003358
 1294.0    0.052975  -0.003373
 1295.0    0.053205  -0.003387
 1296.0    0.053428  -0.003402
 1297.0    0.053651  -0.003416
 1298.0    0.053875  -0.003430
 1299.0    0.054098  -0.003444
 1300.0    0.054322  -0.003458
 1301.0    0.054538  -0.003472
 1302.0    0.054755  -0.003486
 1303.0    0.054972  -0.003500
 1304.0    0.055189  -0.003513
 1305.0    0.055406  -0.003527
 1306.0    0.055616  -0.003541
 1307.0    0.055827  -0.003554
 1308.0    0.056037  -0.003567
 1309.0    0.056247  -0.003581
 1310.0    0.056458  -0.003594
 1311.0    0.056662  -0.003607
 1312.0    0.056865  -0.003620
 1313.0    0.057069  -0.003633
 1314.0    0.057273  -0.003646
 1315.0    0.057477  -0.003659
 1316.0    0.057675  -0.003671
 1317.0    0.057872  -0.003684
 1318.0    0.058070  -0.003696
 1319.0    0.058267  -0.003709
 1320.0    0.058465  -0.003721
 1321.0    0.058656  -0.003734
 1322.0    0.058847  -0.003746
 1323.0    0.059038  -0.003758
 1324.0    0.059229  -0.003770
 1325.0    0.059420  -0.003782
 1326.0    0.059605  -0.003794
 1327.0    0.059790  -0.003805
 1328.0    0.059975  -0.003817
 1329.0    0.060160  -0.003829
 1330.0    0.060346  -0.003841
 1331.0    0.060524  -0.003852
 1332.0    0.060703  -0.003863
 1333.0    0.060882  -0.003875
 1334.0    0.061061  -0.003886
 1335.0    0.061240  -0.003897
 1336.0    0.061413  -0.003908
 1337.0    0.061586  -0.003919
 1338.0    0.061759  -0.003930
 1339.0    0.061931  -0.003941
 1340.0    0.062104  -0.003952
 1341.0    0.062271  -0.003963
 1342.0    0.062438  -0.003973
 1343.0    0.062605  -0.003984
 1344.0    0.062772  -0.003995
 1345.0    0.062939  -0.004005
 1346.0    0.063100  -0.004016
 1347.0    0.063262  -0.004026
 1348.0    0.063423  -0.004036
 1349.0    0.063584  -0.004046
 1350.0    0.063746  -0.004056
 1351.0    0.063901  -0.004066
 1352.0    0.064056  -0.004076
 1353.0    0.064211  -0.004086
 1354.0    0.064366  -0.004096
 1355.0    0.064521  -0.004106
 1356.0    0.064671  -0.004115
 1357.0    0.064821  -0.004125
 1358.0    0.064971  -0.004134
 1359.0    0.065121  -0.004144
 1360.0    0.065270  -0.004153
 1361.0    0.065415  -0.004162
 1362.0    0.065559  -0.004171
 1363.0    0.065703  -0.004181
 1364.0    0.065848  -0.004190
 1365.0    0.065992  -0.004199
 1366.0    0.066131  -0.004208
 1367.0    0.066270  -0.004217
 1368.0    0.066409  -0.004225
 1369.0    0.066548  -0.004234
 1370.0    0.066687  -0.004243
 1371.0    0.066821  -0.004251
 1372.0    0.066954  -0.004260
 1373.0    0.067088  -0.004268
 1374.0    0.067222  -0.004277
 1375.0    0.067355  -0.004285
 1376.0    0.067484  -0.004294
 1377.0    0.067612  -0.004302
 1378.0    0.067741  -0.004310
 1379.0    0.067870  -0.004318
 1380.0    0.067998  -0.004326
 1381.0    0.068122  -0.004334
 1382.0    0.068245  -0.004342
 1383.0    0.068369  -0.004350
 1384.0    0.068492  -0.004358
 1385.0    0.068616  -0.004365
 1386.0    0.068734  -0.004373
 1387.0    0.068853  -0.004380
 1388.0    0.068972  -0.004388
 1389.0    0.069090  -0.004395
 1390.0    0.069209  -0.004403
 1391.0    0.069323  -0.004410
 1392.0    0.069436  -0.004417
 1393.0    0.069550  -0.004425
 1394.0    0.069664  -0.004432
 1395.0    0.069778  -0.004439
 1396.0    0.069887  -0.004446
 1397.0    0.069996  -0.004453
 1398.0    0.070105  -0.004460
 1399.0    0.070214  -0.004467
 1400.0    0.070323  -0.004474
 1401.0    0.070428  -0.004481
 1402.0    0.070533  -0.004487
 1403.0    0.070637  -0.004494
 1404.0    0.070742  -0.004500
 1405.0    0.070846  -0.004507
 1406.0    0.070946  -0.004513
 1407.0    0.071046  -0.004520
 1408.0    0.071146  -0.004526
 1409.0    0.071247  -0.004533
 1410.0    0.071347  -0.004539
 1411.0    0.071442  -0.004545
 1412.0    0.071538  -0.004551
 1413.0    0.071634  -0.004557
 1414.0    0.071730  -0.004563
 1415.0    0.071825  -0.004569
 1416.0    0.071917  -0.004575
 1417.0    0.072008  -0.004581
 1418.0    0.072100  -0.004587
 1419.0    0.072191  -0.004593
 1420.0    0.072283  -0.004599
 1421.0    0.072370  -0.004604
 1422.0    0.072458  -0.004610
 1423.0    0.072545  -0.004615
 1424.0    0.072632  -0.004621
 1425.0    0.072720  -0.004627
 1426.0    0.072803  -0.004632
 1427.0    0.072887  -0.004637
 1428.0    0.072970  -0.004643
 1429.0    0.073053  -0.004648
 1430.0    0.073137  -0.004653
 1431.0    0.073216  -0.004658
 1432.0    0.073295  -0.004663
 1433.0    0.073375  -0.004668
 1434.0    0.073454  -0.004674
 1435.0    0.073534  -0.004679
 1436.0    0.073609  -0.004683
 1437.0    0.073685  -0.004688
 1438.0    0.073761  -0.004693
 1439.0    0.073837  -0.004698
 1440.0    0.073912  -0.004703
 1441.0    0.073984  -0.004708
 1442.0    0.074056  -0.004712
 1443.0    0.074128  -0.004717
 1444.0    0.074200  -0.004721
 1445.0    0.074272  -0.004726
 1446.0    0.074340  -0.004730
 1447.0    0.074409  -0.004735
 1448.0    0.074477  -0.004739
 1449.0    0.074545  -0.004744
 1450.0    0.074613  -0.004748
 1451.0    0.074678  -0.004752
 1452.0    0.074743  -0.004756
 1453.0    0.074808  -0.004761
 1454.0    0.074873  -0.004765
 1455.0    0.074937  -0.004769
 1456.0    0.074999  -0.004773
 1457.0    0.075060  -0.004777
 1458.0    0.075122  -0.004781
 1459.0    0.075183  -0.004785
 1460.0    0.075244  -0.004789
 1461.0    0.075302  -0.004793
 1462.0    0.075360  -0.004796
 1463.0    0.075419  -0.004800
 1464.0    0.075477  -0.004804
 1465.0    0.075535  -0.004808
 1466.0    0.075590  -0.004811
 1467.0    0.075644  -0.004815
 1468.0    0.075699  -0.004818
 1469.0    0.075754  -0.004822
 1470.0    0.075809  -0.004826
 1471.0    0.075861  -0.004829
 1472.0    0.075912  -0.004832
 1473.0    0.075964  -0.004836
 1474.0    0.076016  -0.004839
 1475.0    0.076068  -0.004843
 1476.0    0.076116  -0.004846
 1477.0    0.076165  -0.004849
 1478.0    0.076213  -0.004852
 1479.0    0.076262  -0.004855
 1480.0    0.076311  -0.004859
 1481.0    0.076356  -0.004862
 1482.0    0.076402  -0.004865
 1483.0    0.076448  -0.004868
 1484.0    0.076494  -0.004871
 1485.0    0.076539  -0.004874
 1486.0    0.076582  -0.004876
 1487.0    0.076625  -0.004879
 1488.0    0.076668  -0.004882
 1489.0    0.076711  -0.004885
 1490.0    0.076753  -0.004888
 1491.0    0.076793  -0.004890
 1492.0    0.076834  -0.004893
 1493.0    0.076874  -0.004896
 1494.0    0.076914  -0.004898
 1495.0    0.076954  -0.004901
 1496.0    0.076991  -0.004904
 1497.0    0.077028  -0.004906
 1498.0    0.077066  -0.004909
 1499.0    0.077103  -0.004911
 1500.0    0.077140  -0.004914
 1501.0    0.077175  -0.004916
 1502.0    0.077209  -0.004918
 1503.0    0.077243  -0.004920
 1504.0    0.077277  -0.004923
 1505.0    0.077312  -0.004925
 1506.0    0.077344  -0.004927
 1507.0    0.077377  -0.004929
 1508.0    0.077409  -0.004932
 1509.0    0.077442  -0.004934
 1510.0    0.077475  -0.004936
 1511.0    0.077504  -0.004938
 1512.0    0.077534  -0.004940
 1513.0    0.077564  -0.004942
 1514.0    0.077594  -0.004944
 1515.0    0.077623  -0.004946
 1516.0    0.077651  -0.004948
 1517.0    0.077678  -0.004950
 1518.0    0.077705  -0.004952
 1519.0    0.077732  -0.004954
 1520.0    0.077760  -0.004956
 1521.0    0.077785  -0.004957
 1522.0    0.077810  -0.004959
 1523.0    0.077835  -0.004961
 1524.0    0.077860  -0.004963
 1525.0    0.077884  -0.004964
 1526.0    0.077907  -0.004966
 1527.0    0.077930  -0.004967
 1528.0    0.077953  -0.004969
 1529.0    0.077975  -0.004971
 1530.0    0.077998  -0.004972
 1531.0    0.078019  -0.004974
 1532.0    0.078039  -0.004975
 1533.0    0.078060  -0.004977
 1534.0    0.078080  -0.004978
 1535.0    0.078101  -0.004979
 1536.0    0.078119  -0.004981
 1537.0    0.078138  -0.004982
 1538.0    0.078156  -0.004983
 1539.0    0.078174  -0.004985
 1540.0    0.078193  -0.004986
 1541.0    0.078209  -0.004987
 1542.0    0.078226  -0.004988
 1543.0    0.078242  -0.004989
 1544.0    0.078258  -0.004991
 1545.0    0.078275  -0.004992
 1546.0    0.078289  -0.004993
 1547.0    0.078303  -0.004994
 1548.0    0.078318  -0.004995
 1549.0    0.078332  -0.004996
 1550.0    0.078347  -0.004997
 1551.0    0.078359  -0.004998
 1552.0    0.078372  -0.004999
 1553.0    0.078384  -0.005000
 1554.0    0.078396  -0.005001
 1555.0    0.078409  -0.005002
 1556.0    0.078420  -0.005002
 1557.0    0.078430  -0.005003
 1558.0    0.078441  -0.005004
 1559.0    0.078451  -0.005005
 1560.0    0.078462  -0.005005
 1561.0    0.078471  -0.005006
 1562.0    0.078480  -0.005007
 1563.0    0.078488  -0.005007
 1564.0    0.078497  -0.005008
 1565.0    0.078506  -0.005009
 1566.0    0.078513  -0.005009
 1567.0    0.078520  -0.005010
 1568.0    0.078527  -0.005010
 1569.0    0.078534  -0.005011
 1570.0    0.078541  -0.005011
 1571.0    0.078547  -0.005012
 1572.0    0.078552  -0.005012
 1573.0    0.078558  -0.005012
 1574.0    0.078563  -0.005013
 1575.0    0.078568  -0.005013
 1576.0    0.078572  -0.005014
 1577.0    0.078576  -0.005014
 1578.0    0.078580  -0.005014
 1579.0    0.078583  -0.005014
 1580.0    0.078587  -0.005015
 1581.0    0.078589  -0.005015
 1582.0    0.078592  -0.005015
 1583.0    0.078594  -0.005015
 1584.0    0.078596  -0.005015
 1585.0    0.078598  -0.005015
 1586.0    0.078599  -0.005015
 1587.0    0.078599  -0.005015
 1588.0    0.078600  -0.005015
 1589.0    0.078601  -0.005015
 1590.0    0.078601  -0.005015
 1591.0    0.078601  -0.005015
 1592.0    0.078600  -0.005015
 1593.0    0.078599  -0.005015
 1594.0    0.078598  -0.005015
 1595.0    0.078597  -0.005015
 1596.0    0.078595  -0.005015
 1597.0    0.078593  -0.005015
 1598.0    0.078591  -0.005014
 1599.0    0.078589  -0.005014
 1600.0    0.078586  -0.005014
 1601.0    0.078583  -0.005014
 1602.0    0.078579  -0.005013
 1603.0    0.078576  -0.005013
 1604.0    0.078572  -0.005012
 1605.0    0.078568  -0.005012
 1606.0    0.078564  -0.005012
 1607.0    0.078559  -0.005011
 1608.0    0.078554  -0.005011
 1609.0    0.078549  -0.005010
 1610.0    0.078544  -0.005010
 1611.0    0.078538  -0.005009
 1612.0    0.078532  -0.005009
 1613.0    0.078525  -0.005008
 1614.0    0.078519  -0.005007
 1615.0    0.078513  -0.005007
 1616.0    0.078506  -0.005006
 1617.0    0.078498  -0.005005
 1618.0    0.078491  -0.005005
 1619.0    0.078483  -0.005004
 1620.0    0.078476  -0.005003
 1621.0    0.078467  -0.005002
 1622.0    0.078459  -0.005001
 1623.0    0.078450  -0.005000
 1624.0    0.078442  -0.005000
 1625.0    0.078433  -0.004999
 1626.0    0.078423  -0.004998
 1627.0    0.078414  -0.004997
 1628.0    0.078404  -0.004996
 1629.0    0.078394  -0.004995
 1630.0    0.078384  -0.004994
 1631.0    0.078374  -0.004993
 1632.0    0.078363  -0.004992
 1633.0    0.078352  -0.004990
 1634.0    0.078341  -0.004989
 1635.0    0.078330  -0.004988
 1636.0    0.078318  -0.004987
 1637.0    0.078306  -0.004986
 1638.0    0.078295  -0.004984
 1639.0    0.078283  -0.004983
 1640.0    0.078271  -0.004982
 1641.0    0.078258  -0.004980
 1642.0    0.078245  -0.004979
 1643.0    0.078232  -0.004978
 1644.0    0.078219  -0.004976
 1645.0    0.078206  -0.004975
 1646.0    0.078192  -0.004973
 1647.0    0.078178  -0.004972
 1648.0    0.078164  -0.004970
 1649.0    0.078151  -0.004969
 1650.0    0.078137  -0.004967
 1651.0    0.078122  -0.004965
 1652.0    0.078107  -0.004964
 1653.0    0.078092  -0.004962
 1654.0    0.078077  -0.004960
 1655.0    0.078063  -0.004959
 1656.0    0.078047  -0.004957
 1657.0    0.078031  -0.004955
 1658.0    0.078015  -0.004953
 1659.0    0.078000  -0.004951
 1660.0    0.077984  -0.004949
 1661.0    0.077967  -0.004947
 1662.0    0.077951  -0.004945
 1663.0    0.077934  -0.004943
 1664.0    0.077917  -0.004941
 1665.0    0.077901  -0.004939
 1666.0    0.077883  -0.004937
 1667.0    0.077866  -0.004935
 1668.0    0.077848  -0.004933
 1669.0    0.077831  -0.004931
 1670.0    0.077813  -0.004928
 1671.0    0.077795  -0.004926
 1672.0    0.077777  -0.004924
 1673.0    0.077759  -0.004921
 1674.0    0.077740  -0.004919
 1675.0    0.077722  -0.004917
 1676.0    0.077703  -0.004914
 1677.0    0.077684  -0.004912
 1678.0    0.077665  -0.004909
 1679.0    0.077646  -0.004907
 1680.0    0.077627  -0.004904
 1681.0    0.077607  -0.004902
 1682.0    0.077587  -0.004899
 1683.0    0.077567  -0.004896
 1684.0    0.077548  -0.004894
 1685.0    0.077528  -0.004891
 1686.0    0.077507  -0.004888
 1687.0    0.077487  -0.004885
 1688.0    0.077466  -0.004883
 1689.0    0.077446  -0.004880
 1690.0    0.077425  -0.004877
 1691.0    0.077404  -0.004874
 1692.0    0.077383  -0.004871
 1693.0    0.077362  -0.004868
 1694.0    0.077341  -0.004865
 1695.0    0.077319  -0.004862
 1696.0    0.077298  -0.004859
 1697.0    0.077276  -0.004855
 1698.0    0.077254  -0.004852
 1699.0    0.077232  -0.004849
 1700.0    0.077210  -0.004846
 1701.0    0.077188  -0.004842
 1702.0    0.077165  -0.004839
 1703.0    0.077143  -0.004836
 1704.0    0.077120  -0.004832
 1705.0    0.077098  -0.004829
 1706.0    0.077075  -0.004825
 1707.0    0.077052  -0.004822
 1708.0    0.077029  -0.004818
 1709.0    0.077006  -0.004814
 1710.0    0.076982  -0.004811
 1711.0    0.076959  -0.004807
 1712.0    0.076935  -0.004803
 1713.0    0.076912  -0.004799
 1714.0    0.076888  -0.004796
 1715.0    0.076864  -0.004792
 1716.0    0.076840  -0.004788
