   W         M4+(pi+_n)
 (MeV)      Re         Im
 1074.0    0.000248  -0.000015
 1075.0    0.000206  -0.000013
 1076.0    0.000164  -0.000010
 1077.0    0.000122  -0.000008
 1078.0    0.000079  -0.000005
 1079.0    0.000037  -0.000002
 1080.0   -0.000005   0.000000
 1081.0   -0.000047   0.000003
 1082.0   -0.000089   0.000006
 1083.0   -0.000131   0.000008
 1084.0   -0.000174   0.000011
 1085.0   -0.000216   0.000013
 1086.0   -0.000314   0.000019
 1087.0   -0.000412   0.000025
 1088.0   -0.000511   0.000032
 1089.0   -0.000609   0.000038
 1090.0   -0.000707   0.000044
 1091.0   -0.000854   0.000053
 1092.0   -0.001000   0.000062
 1093.0   -0.001147   0.000071
 1094.0   -0.001294   0.000080
 1095.0   -0.001440   0.000089
 1096.0   -0.001629   0.000100
 1097.0   -0.001817   0.000112
 1098.0   -0.002005   0.000123
 1099.0   -0.002193   0.000135
 1100.0   -0.002382   0.000146
 1101.0   -0.002606   0.000160
 1102.0   -0.002830   0.000174
 1103.0   -0.003054   0.000188
 1104.0   -0.003278   0.000201
 1105.0   -0.003502   0.000215
 1106.0   -0.003756   0.000230
 1107.0   -0.004010   0.000246
 1108.0   -0.004265   0.000261
 1109.0   -0.004519   0.000277
 1110.0   -0.004773   0.000292
 1111.0   -0.005054   0.000309
 1112.0   -0.005334   0.000326
 1113.0   -0.005614   0.000343
 1114.0   -0.005894   0.000360
 1115.0   -0.006174   0.000377
 1116.0   -0.006476   0.000395
 1117.0   -0.006778   0.000413
 1118.0   -0.007080   0.000431
 1119.0   -0.007382   0.000450
 1120.0   -0.007684   0.000468
 1121.0   -0.008004   0.000487
 1122.0   -0.008323   0.000506
 1123.0   -0.008643   0.000525
 1124.0   -0.008963   0.000544
 1125.0   -0.009283   0.000564
 1126.0   -0.009618   0.000584
 1127.0   -0.009953   0.000603
 1128.0   -0.010288   0.000623
 1129.0   -0.010623   0.000643
 1130.0   -0.010957   0.000663
 1131.0   -0.011304   0.000684
 1132.0   -0.011651   0.000704
 1133.0   -0.011998   0.000725
 1134.0   -0.012345   0.000745
 1135.0   -0.012692   0.000766
 1136.0   -0.013048   0.000787
 1137.0   -0.013405   0.000808
 1138.0   -0.013761   0.000829
 1139.0   -0.014118   0.000850
 1140.0   -0.014474   0.000871
 1141.0   -0.014838   0.000892
 1142.0   -0.015202   0.000913
 1143.0   -0.015566   0.000934
 1144.0   -0.015929   0.000955
 1145.0   -0.016293   0.000977
 1146.0   -0.016663   0.000998
 1147.0   -0.017032   0.001019
 1148.0   -0.017401   0.001041
 1149.0   -0.017770   0.001062
 1150.0   -0.018140   0.001083
 1151.0   -0.018513   0.001105
 1152.0   -0.018886   0.001126
 1153.0   -0.019259   0.001148
 1154.0   -0.019632   0.001169
 1155.0   -0.020005   0.001190
 1156.0   -0.020380   0.001212
 1157.0   -0.020755   0.001233
 1158.0   -0.021131   0.001254
 1159.0   -0.021506   0.001276
 1160.0   -0.021881   0.001297
 1161.0   -0.022257   0.001318
 1162.0   -0.022634   0.001339
 1163.0   -0.023010   0.001360
 1164.0   -0.023386   0.001382
 1165.0   -0.023762   0.001403
 1166.0   -0.024138   0.001424
 1167.0   -0.024514   0.001444
 1168.0   -0.024890   0.001465
 1169.0   -0.025266   0.001486
 1170.0   -0.025642   0.001507
 1171.0   -0.026017   0.001528
 1172.0   -0.026391   0.001548
 1173.0   -0.026766   0.001569
 1174.0   -0.027141   0.001589
 1175.0   -0.027516   0.001610
 1176.0   -0.027888   0.001630
 1177.0   -0.028261   0.001650
 1178.0   -0.028633   0.001670
 1179.0   -0.029006   0.001691
 1180.0   -0.029379   0.001711
 1181.0   -0.029748   0.001731
 1182.0   -0.030118   0.001750
 1183.0   -0.030487   0.001770
 1184.0   -0.030857   0.001790
 1185.0   -0.031227   0.001809
 1186.0   -0.031593   0.001829
 1187.0   -0.031959   0.001848
 1188.0   -0.032325   0.001867
 1189.0   -0.032691   0.001886
 1190.0   -0.033057   0.001906
 1191.0   -0.033419   0.001924
 1192.0   -0.033781   0.001943
 1193.0   -0.034143   0.001962
 1194.0   -0.034505   0.001980
 1195.0   -0.034867   0.001999
 1196.0   -0.035224   0.002017
 1197.0   -0.035581   0.002035
 1198.0   -0.035938   0.002053
 1199.0   -0.036296   0.002071
 1200.0   -0.036653   0.002090
 1201.0   -0.037005   0.002107
 1202.0   -0.037357   0.002125
 1203.0   -0.037709   0.002142
 1204.0   -0.038061   0.002159
 1205.0   -0.038413   0.002177
 1206.0   -0.038760   0.002194
 1207.0   -0.039107   0.002211
 1208.0   -0.039453   0.002227
 1209.0   -0.039800   0.002244
 1210.0   -0.040147   0.002261
 1211.0   -0.040488   0.002277
 1212.0   -0.040828   0.002293
 1213.0   -0.041169   0.002309
 1214.0   -0.041510   0.002326
 1215.0   -0.041851   0.002342
 1216.0   -0.042186   0.002357
 1217.0   -0.042521   0.002372
 1218.0   -0.042855   0.002388
 1219.0   -0.043190   0.002403
 1220.0   -0.043525   0.002419
 1221.0   -0.043854   0.002433
 1222.0   -0.044182   0.002448
 1223.0   -0.044511   0.002463
 1224.0   -0.044839   0.002477
 1225.0   -0.045168   0.002492
 1226.0   -0.045490   0.002506
 1227.0   -0.045812   0.002520
 1228.0   -0.046134   0.002534
 1229.0   -0.046456   0.002548
 1230.0   -0.046778   0.002562
 1231.0   -0.047094   0.002575
 1232.0   -0.047409   0.002588
 1233.0   -0.047725   0.002601
 1234.0   -0.048041   0.002614
 1235.0   -0.048356   0.002627
 1236.0   -0.048665   0.002639
 1237.0   -0.048974   0.002652
 1238.0   -0.049283   0.002664
 1239.0   -0.049591   0.002676
 1240.0   -0.049900   0.002689
 1241.0   -0.050202   0.002700
 1242.0   -0.050504   0.002712
 1243.0   -0.050806   0.002723
 1244.0   -0.051109   0.002735
 1245.0   -0.051411   0.002746
 1246.0   -0.051706   0.002757
 1247.0   -0.052001   0.002767
 1248.0   -0.052296   0.002778
 1249.0   -0.052592   0.002789
 1250.0   -0.052887   0.002799
 1251.0   -0.053175   0.002809
 1252.0   -0.053464   0.002819
 1253.0   -0.053752   0.002829
 1254.0   -0.054040   0.002838
 1255.0   -0.054329   0.002848
 1256.0   -0.054610   0.002857
 1257.0   -0.054892   0.002866
 1258.0   -0.055173   0.002875
 1259.0   -0.055455   0.002884
 1260.0   -0.055736   0.002893
 1261.0   -0.056011   0.002901
 1262.0   -0.056285   0.002909
 1263.0   -0.056560   0.002917
 1264.0   -0.056834   0.002925
 1265.0   -0.057109   0.002933
 1266.0   -0.057377   0.002940
 1267.0   -0.057644   0.002947
 1268.0   -0.057912   0.002955
 1269.0   -0.058180   0.002962
 1270.0   -0.058447   0.002969
 1271.0   -0.058708   0.002975
 1272.0   -0.058970   0.002982
 1273.0   -0.059231   0.002988
 1274.0   -0.059492   0.002994
 1275.0   -0.059753   0.003000
 1276.0   -0.060007   0.003006
 1277.0   -0.060261   0.003011
 1278.0   -0.060515   0.003017
 1279.0   -0.060770   0.003022
 1280.0   -0.061024   0.003027
 1281.0   -0.061271   0.003032
 1282.0   -0.061519   0.003036
 1283.0   -0.061766   0.003041
 1284.0   -0.062013   0.003045
 1285.0   -0.062261   0.003050
 1286.0   -0.062501   0.003053
 1287.0   -0.062742   0.003057
 1288.0   -0.062982   0.003060
 1289.0   -0.063223   0.003064
 1290.0   -0.063463   0.003067
 1291.0   -0.063697   0.003070
 1292.0   -0.063932   0.003072
 1293.0   -0.064166   0.003075
 1294.0   -0.064400   0.003078
 1295.0   -0.064634   0.003080
 1296.0   -0.064862   0.003082
 1297.0   -0.065089   0.003084
 1298.0   -0.065317   0.003085
 1299.0   -0.065544   0.003087
 1300.0   -0.065772   0.003089
 1301.0   -0.065993   0.003089
 1302.0   -0.066213   0.003090
 1303.0   -0.066434   0.003091
 1304.0   -0.066655   0.003091
 1305.0   -0.066875   0.003092
 1306.0   -0.067090   0.003092
 1307.0   -0.067305   0.003091
 1308.0   -0.067520   0.003091
 1309.0   -0.067735   0.003091
 1310.0   -0.067950   0.003091
 1311.0   -0.068158   0.003090
 1312.0   -0.068366   0.003089
 1313.0   -0.068575   0.003087
 1314.0   -0.068783   0.003086
 1315.0   -0.068992   0.003085
 1316.0   -0.069194   0.003083
 1317.0   -0.069396   0.003081
 1318.0   -0.069598   0.003079
 1319.0   -0.069800   0.003077
 1320.0   -0.070003   0.003075
 1321.0   -0.070198   0.003071
 1322.0   -0.070394   0.003068
 1323.0   -0.070589   0.003065
 1324.0   -0.070785   0.003061
 1325.0   -0.070980   0.003058
 1326.0   -0.071170   0.003054
 1327.0   -0.071361   0.003050
 1328.0   -0.071551   0.003046
 1329.0   -0.071741   0.003043
 1330.0   -0.071931   0.003039
 1331.0   -0.072116   0.003034
 1332.0   -0.072300   0.003029
 1333.0   -0.072484   0.003024
 1334.0   -0.072668   0.003019
 1335.0   -0.072852   0.003014
 1336.0   -0.073030   0.003008
 1337.0   -0.073208   0.003002
 1338.0   -0.073386   0.002996
 1339.0   -0.073564   0.002990
 1340.0   -0.073743   0.002984
 1341.0   -0.073915   0.002977
 1342.0   -0.074087   0.002970
 1343.0   -0.074260   0.002963
 1344.0   -0.074432   0.002956
 1345.0   -0.074605   0.002950
 1346.0   -0.074771   0.002942
 1347.0   -0.074938   0.002934
 1348.0   -0.075105   0.002926
 1349.0   -0.075272   0.002919
 1350.0   -0.075439   0.002911
 1351.0   -0.075600   0.002902
 1352.0   -0.075761   0.002893
 1353.0   -0.075922   0.002884
 1354.0   -0.076083   0.002875
 1355.0   -0.076244   0.002866
 1356.0   -0.076400   0.002856
 1357.0   -0.076555   0.002847
 1358.0   -0.076711   0.002837
 1359.0   -0.076867   0.002827
 1360.0   -0.077022   0.002817
 1361.0   -0.077173   0.002807
 1362.0   -0.077323   0.002796
 1363.0   -0.077473   0.002785
 1364.0   -0.077624   0.002775
 1365.0   -0.077774   0.002764
 1366.0   -0.077919   0.002752
 1367.0   -0.078064   0.002741
 1368.0   -0.078209   0.002729
 1369.0   -0.078354   0.002717
 1370.0   -0.078499   0.002706
 1371.0   -0.078639   0.002693
 1372.0   -0.078779   0.002681
 1373.0   -0.078919   0.002668
 1374.0   -0.079058   0.002656
 1375.0   -0.079198   0.002643
 1376.0   -0.079333   0.002630
 1377.0   -0.079468   0.002616
 1378.0   -0.079602   0.002603
 1379.0   -0.079737   0.002589
 1380.0   -0.079872   0.002576
 1381.0   -0.080001   0.002562
 1382.0   -0.080131   0.002547
 1383.0   -0.080260   0.002533
 1384.0   -0.080390   0.002519
 1385.0   -0.080520   0.002504
 1386.0   -0.080645   0.002489
 1387.0   -0.080770   0.002474
 1388.0   -0.080895   0.002458
 1389.0   -0.081020   0.002443
 1390.0   -0.081145   0.002428
 1391.0   -0.081265   0.002412
 1392.0   -0.081384   0.002396
 1393.0   -0.081504   0.002379
 1394.0   -0.081624   0.002363
 1395.0   -0.081744   0.002347
 1396.0   -0.081859   0.002330
 1397.0   -0.081974   0.002313
 1398.0   -0.082089   0.002296
 1399.0   -0.082204   0.002279
 1400.0   -0.082320   0.002262
 1401.0   -0.082430   0.002244
 1402.0   -0.082541   0.002227
 1403.0   -0.082651   0.002209
 1404.0   -0.082761   0.002191
 1405.0   -0.082872   0.002173
 1406.0   -0.082978   0.002154
 1407.0   -0.083084   0.002136
 1408.0   -0.083190   0.002117
 1409.0   -0.083295   0.002098
 1410.0   -0.083401   0.002080
 1411.0   -0.083503   0.002060
 1412.0   -0.083604   0.002041
 1413.0   -0.083705   0.002021
 1414.0   -0.083807   0.002002
 1415.0   -0.083908   0.001982
 1416.0   -0.084005   0.001962
 1417.0   -0.084102   0.001942
 1418.0   -0.084199   0.001921
 1419.0   -0.084296   0.001901
 1420.0   -0.084393   0.001881
 1421.0   -0.084485   0.001860
 1422.0   -0.084578   0.001839
 1423.0   -0.084670   0.001817
 1424.0   -0.084763   0.001796
 1425.0   -0.084856   0.001775
 1426.0   -0.084944   0.001754
 1427.0   -0.085032   0.001732
 1428.0   -0.085120   0.001710
 1429.0   -0.085209   0.001688
 1430.0   -0.085297   0.001666
 1431.0   -0.085381   0.001644
 1432.0   -0.085465   0.001621
 1433.0   -0.085548   0.001598
 1434.0   -0.085632   0.001576
 1435.0   -0.085716   0.001553
 1436.0   -0.085797   0.001530
 1437.0   -0.085877   0.001507
 1438.0   -0.085958   0.001484
 1439.0   -0.086038   0.001461
 1440.0   -0.086119   0.001438
 1441.0   -0.086195   0.001414
 1442.0   -0.086270   0.001390
 1443.0   -0.086346   0.001366
 1444.0   -0.086422   0.001342
 1445.0   -0.086498   0.001318
 1446.0   -0.086570   0.001293
 1447.0   -0.086642   0.001268
 1448.0   -0.086714   0.001244
 1449.0   -0.086785   0.001219
 1450.0   -0.086857   0.001195
 1451.0   -0.086925   0.001169
 1452.0   -0.086993   0.001144
 1453.0   -0.087061   0.001119
 1454.0   -0.087129   0.001094
 1455.0   -0.087197   0.001068
 1456.0   -0.087262   0.001043
 1457.0   -0.087326   0.001017
 1458.0   -0.087390   0.000991
 1459.0   -0.087454   0.000965
 1460.0   -0.087518   0.000939
 1461.0   -0.087579   0.000913
 1462.0   -0.087639   0.000886
 1463.0   -0.087700   0.000860
 1464.0   -0.087760   0.000834
 1465.0   -0.087820   0.000807
 1466.0   -0.087877   0.000780
 1467.0   -0.087934   0.000753
 1468.0   -0.087991   0.000726
 1469.0   -0.088047   0.000699
 1470.0   -0.088104   0.000672
 1471.0   -0.088157   0.000645
 1472.0   -0.088210   0.000618
 1473.0   -0.088263   0.000590
 1474.0   -0.088316   0.000563
 1475.0   -0.088370   0.000535
 1476.0   -0.088419   0.000507
 1477.0   -0.088469   0.000479
 1478.0   -0.088518   0.000451
 1479.0   -0.088568   0.000423
 1480.0   -0.088617   0.000396
 1481.0   -0.088663   0.000367
 1482.0   -0.088709   0.000339
 1483.0   -0.088755   0.000310
 1484.0   -0.088801   0.000282
 1485.0   -0.088847   0.000254
 1486.0   -0.088890   0.000225
 1487.0   -0.088933   0.000196
 1488.0   -0.088975   0.000167
 1489.0   -0.089018   0.000138
 1490.0   -0.089060   0.000110
 1491.0   -0.089100   0.000081
 1492.0   -0.089139   0.000051
 1493.0   -0.089178   0.000022
 1494.0   -0.089217  -0.000007
 1495.0   -0.089257  -0.000036
 1496.0   -0.089292  -0.000066
 1497.0   -0.089328  -0.000095
 1498.0   -0.089364  -0.000125
 1499.0   -0.089400  -0.000154
 1500.0   -0.089436  -0.000184
 1501.0   -0.089467  -0.000215
 1502.0   -0.089497  -0.000246
 1503.0   -0.089528  -0.000277
 1504.0   -0.089559  -0.000308
 1505.0   -0.089589  -0.000339
 1506.0   -0.089621  -0.000367
 1507.0   -0.089653  -0.000396
 1508.0   -0.089685  -0.000425
 1509.0   -0.089717  -0.000454
 1510.0   -0.089749  -0.000483
 1511.0   -0.089775  -0.000513
 1512.0   -0.089801  -0.000543
 1513.0   -0.089828  -0.000574
 1514.0   -0.089854  -0.000604
 1515.0   -0.089881  -0.000634
 1516.0   -0.089904  -0.000665
 1517.0   -0.089927  -0.000695
 1518.0   -0.089951  -0.000726
 1519.0   -0.089974  -0.000756
 1520.0   -0.089998  -0.000787
 1521.0   -0.090018  -0.000817
 1522.0   -0.090039  -0.000848
 1523.0   -0.090059  -0.000879
 1524.0   -0.090080  -0.000909
 1525.0   -0.090100  -0.000940
 1526.0   -0.090118  -0.000971
 1527.0   -0.090135  -0.001002
 1528.0   -0.090153  -0.001032
 1529.0   -0.090170  -0.001063
 1530.0   -0.090188  -0.001094
 1531.0   -0.090203  -0.001125
 1532.0   -0.090217  -0.001156
 1533.0   -0.090232  -0.001187
 1534.0   -0.090247  -0.001217
 1535.0   -0.090262  -0.001248
 1536.0   -0.090274  -0.001279
 1537.0   -0.090285  -0.001310
 1538.0   -0.090297  -0.001341
 1539.0   -0.090309  -0.001372
 1540.0   -0.090321  -0.001403
 1541.0   -0.090331  -0.001434
 1542.0   -0.090340  -0.001465
 1543.0   -0.090349  -0.001496
 1544.0   -0.090358  -0.001527
 1545.0   -0.090368  -0.001558
 1546.0   -0.090374  -0.001589
 1547.0   -0.090381  -0.001619
 1548.0   -0.090388  -0.001650
 1549.0   -0.090394  -0.001681
 1550.0   -0.090401  -0.001712
 1551.0   -0.090405  -0.001743
 1552.0   -0.090409  -0.001774
 1553.0   -0.090413  -0.001805
 1554.0   -0.090417  -0.001836
 1555.0   -0.090421  -0.001867
 1556.0   -0.090423  -0.001897
 1557.0   -0.090424  -0.001928
 1558.0   -0.090426  -0.001959
 1559.0   -0.090428  -0.001990
 1560.0   -0.090429  -0.002020
 1561.0   -0.090428  -0.002051
 1562.0   -0.090428  -0.002082
 1563.0   -0.090427  -0.002112
 1564.0   -0.090426  -0.002143
 1565.0   -0.090425  -0.002174
 1566.0   -0.090422  -0.002204
 1567.0   -0.090419  -0.002235
 1568.0   -0.090415  -0.002265
 1569.0   -0.090412  -0.002296
 1570.0   -0.090409  -0.002326
 1571.0   -0.090403  -0.002356
 1572.0   -0.090398  -0.002387
 1573.0   -0.090392  -0.002417
 1574.0   -0.090387  -0.002447
 1575.0   -0.090381  -0.002478
 1576.0   -0.090374  -0.002508
 1577.0   -0.090366  -0.002538
 1578.0   -0.090358  -0.002568
 1579.0   -0.090351  -0.002598
 1580.0   -0.090343  -0.002628
 1581.0   -0.090333  -0.002658
 1582.0   -0.090323  -0.002688
 1583.0   -0.090313  -0.002717
 1584.0   -0.090303  -0.002747
 1585.0   -0.090293  -0.002777
 1586.0   -0.090281  -0.002807
 1587.0   -0.090269  -0.002836
 1588.0   -0.090257  -0.002866
 1589.0   -0.090246  -0.002895
 1590.0   -0.090234  -0.002925
 1591.0   -0.090220  -0.002954
 1592.0   -0.090206  -0.002983
 1593.0   -0.090192  -0.003013
 1594.0   -0.090178  -0.003042
 1595.0   -0.090164  -0.003071
 1596.0   -0.090148  -0.003100
 1597.0   -0.090132  -0.003129
 1598.0   -0.090116  -0.003158
 1599.0   -0.090100  -0.003187
 1600.0   -0.090084  -0.003216
 1601.0   -0.090066  -0.003244
 1602.0   -0.090049  -0.003273
 1603.0   -0.090031  -0.003301
 1604.0   -0.090013  -0.003329
 1605.0   -0.089995  -0.003358
 1606.0   -0.089976  -0.003386
 1607.0   -0.089956  -0.003414
 1608.0   -0.089936  -0.003443
 1609.0   -0.089917  -0.003471
 1610.0   -0.089897  -0.003499
 1611.0   -0.089876  -0.003527
 1612.0   -0.089855  -0.003555
 1613.0   -0.089833  -0.003583
 1614.0   -0.089812  -0.003611
 1615.0   -0.089791  -0.003638
 1616.0   -0.089768  -0.003666
 1617.0   -0.089745  -0.003693
 1618.0   -0.089722  -0.003720
 1619.0   -0.089699  -0.003748
 1620.0   -0.089676  -0.003775
 1621.0   -0.089651  -0.003802
 1622.0   -0.089627  -0.003829
 1623.0   -0.089602  -0.003856
 1624.0   -0.089577  -0.003883
 1625.0   -0.089553  -0.003910
 1626.0   -0.089527  -0.003936
 1627.0   -0.089501  -0.003963
 1628.0   -0.089475  -0.003989
 1629.0   -0.089448  -0.004016
 1630.0   -0.089422  -0.004042
 1631.0   -0.089395  -0.004068
 1632.0   -0.089367  -0.004094
 1633.0   -0.089340  -0.004121
 1634.0   -0.089312  -0.004147
 1635.0   -0.089285  -0.004173
 1636.0   -0.089256  -0.004198
 1637.0   -0.089227  -0.004224
 1638.0   -0.089198  -0.004249
 1639.0   -0.089169  -0.004275
 1640.0   -0.089140  -0.004300
 1641.0   -0.089110  -0.004325
 1642.0   -0.089080  -0.004350
 1643.0   -0.089050  -0.004376
 1644.0   -0.089019  -0.004401
 1645.0   -0.088989  -0.004426
 1646.0   -0.088958  -0.004450
 1647.0   -0.088926  -0.004475
 1648.0   -0.088895  -0.004499
 1649.0   -0.088863  -0.004524
 1650.0   -0.088832  -0.004549
 1651.0   -0.088799  -0.004573
 1652.0   -0.088767  -0.004597
 1653.0   -0.088734  -0.004621
 1654.0   -0.088702  -0.004645
 1655.0   -0.088669  -0.004669
 1656.0   -0.088635  -0.004693
 1657.0   -0.088602  -0.004716
 1658.0   -0.088568  -0.004740
 1659.0   -0.088534  -0.004763
 1660.0   -0.088501  -0.004787
 1661.0   -0.088466  -0.004810
 1662.0   -0.088431  -0.004833
 1663.0   -0.088397  -0.004856
 1664.0   -0.088362  -0.004879
 1665.0   -0.088327  -0.004902
 1666.0   -0.088292  -0.004925
 1667.0   -0.088256  -0.004948
 1668.0   -0.088220  -0.004970
 1669.0   -0.088185  -0.004993
 1670.0   -0.088149  -0.005015
 1671.0   -0.088112  -0.005037
 1672.0   -0.088076  -0.005060
 1673.0   -0.088039  -0.005082
 1674.0   -0.088003  -0.005104
 1675.0   -0.087966  -0.005126
 1676.0   -0.087929  -0.005147
 1677.0   -0.087892  -0.005169
 1678.0   -0.087854  -0.005191
 1679.0   -0.087817  -0.005212
 1680.0   -0.087780  -0.005234
 1681.0   -0.087741  -0.005255
 1682.0   -0.087703  -0.005276
 1683.0   -0.087665  -0.005297
 1684.0   -0.087627  -0.005319
 1685.0   -0.087589  -0.005340
 1686.0   -0.087550  -0.005360
 1687.0   -0.087512  -0.005381
 1688.0   -0.087473  -0.005402
 1689.0   -0.087434  -0.005422
 1690.0   -0.087395  -0.005443
 1691.0   -0.087356  -0.005463
 1692.0   -0.087317  -0.005484
 1693.0   -0.087277  -0.005504
 1694.0   -0.087238  -0.005524
 1695.0   -0.087199  -0.005544
 1696.0   -0.087159  -0.005564
 1697.0   -0.087119  -0.005584
 1698.0   -0.087079  -0.005604
 1699.0   -0.087039  -0.005623
 1700.0   -0.086999  -0.005643
 1701.0   -0.086959  -0.005663
 1702.0   -0.086918  -0.005682
 1703.0   -0.086878  -0.005701
 1704.0   -0.086837  -0.005721
 1705.0   -0.086797  -0.005740
 1706.0   -0.086756  -0.005759
 1707.0   -0.086715  -0.005778
 1708.0   -0.086675  -0.005797
 1709.0   -0.086634  -0.005816
 1710.0   -0.086593  -0.005835
 1711.0   -0.086552  -0.005854
 1712.0   -0.086511  -0.005872
 1713.0   -0.086469  -0.005891
 1714.0   -0.086428  -0.005910
 1715.0   -0.086387  -0.005928
 1716.0   -0.086346  -0.005946
