   W          E0+(pi+_n)
 (MeV)       Re        Im
 1080.00   28.10229   0.29345
 1081.00   27.91955   0.39421
 1082.00   27.73898   0.47118
 1083.00   27.56050   0.53542
 1084.00   27.38416   0.59130
 1085.00   27.20998   0.64113
 1086.00   27.03793   0.68628
 1087.00   26.86792   0.72768
 1088.00   26.69988   0.76596
 1089.00   26.53378   0.80159
 1090.00   26.36956   0.83492
 1091.00   26.20577   0.86946
 1092.00   26.04514   0.89739
 1093.00   25.88730   0.91957
 1094.00   25.73192   0.93681
 1095.00   25.57872   0.94994
 1096.00   25.42739   0.95975
 1097.00   25.27770   0.96701
 1098.00   25.12939   0.97250
 1099.00   24.98222   0.97696
 1100.00   24.83598   0.98113
 1101.00   24.69050   0.98560
 1102.00   24.54582   0.99036
 1103.00   24.40203   0.99526
 1104.00   24.25923   1.00016
 1105.00   24.11752   1.00493
 1106.00   23.97702   1.00944
 1107.00   23.83783   1.01355
 1108.00   23.70005   1.01716
 1109.00   23.56378   1.02014
 1110.00   23.42911   1.02236
 1111.00   23.29612   1.02376
 1112.00   23.16478   1.02437
 1113.00   23.03505   1.02425
 1114.00   22.90691   1.02348
 1115.00   22.78030   1.02213
 1116.00   22.65518   1.02026
 1117.00   22.53150   1.01793
 1118.00   22.40924   1.01521
 1119.00   22.28833   1.01215
 1120.00   22.16873   1.00882
 1121.00   22.05041   1.00526
 1122.00   21.93336   1.00150
 1123.00   21.81756   0.99751
 1124.00   21.70302   0.99332
 1125.00   21.58972   0.98891
 1126.00   21.47767   0.98430
 1127.00   21.36686   0.97947
 1128.00   21.25727   0.97443
 1129.00   21.14892   0.96918
 1130.00   21.04178   0.96372
 1131.00   20.93587   0.95805
 1132.00   20.83114   0.95219
 1133.00   20.72759   0.94615
 1134.00   20.62519   0.93995
 1135.00   20.52392   0.93361
 1136.00   20.42375   0.92715
 1137.00   20.32467   0.92057
 1138.00   20.22664   0.91389
 1139.00   20.12965   0.90713
 1140.00   20.03367   0.90031
 1141.00   19.93868   0.89342
 1142.00   19.84467   0.88649
 1143.00   19.75162   0.87951
 1144.00   19.65951   0.87247
 1145.00   19.56833   0.86539
 1146.00   19.47806   0.85826
 1147.00   19.38869   0.85108
 1148.00   19.30021   0.84386
 1149.00   19.21261   0.83659
 1150.00   19.12586   0.82927
 1151.00   19.03997   0.82192
 1152.00   18.95491   0.81452
 1153.00   18.87068   0.80708
 1154.00   18.78727   0.79960
 1155.00   18.70468   0.79209
 1156.00   18.62289   0.78454
 1157.00   18.54189   0.77696
 1158.00   18.46168   0.76935
 1159.00   18.38226   0.76171
 1160.00   18.30361   0.75404
 1161.00   18.22572   0.74634
 1162.00   18.14859   0.73862
 1163.00   18.07219   0.73088
 1164.00   17.99651   0.72313
 1165.00   17.92153   0.71537
 1166.00   17.84725   0.70759
 1167.00   17.77363   0.69982
 1168.00   17.70067   0.69204
 1169.00   17.62835   0.68426
 1170.00   17.55661   0.67651
 1171.00   17.48590   0.66879
 1172.00   17.41571   0.66107
 1173.00   17.34604   0.65334
 1174.00   17.27688   0.64562
 1175.00   17.20822   0.63789
 1176.00   17.14007   0.63015
 1177.00   17.07242   0.62242
 1178.00   17.00526   0.61468
 1179.00   16.93859   0.60694
 1180.00   16.87242   0.59919
 1181.00   16.80751   0.59152
 1182.00   16.74308   0.58386
 1183.00   16.67912   0.57620
 1184.00   16.61564   0.56856
 1185.00   16.55261   0.56093
 1186.00   16.49005   0.55334
 1187.00   16.42793   0.54578
 1188.00   16.36627   0.53825
 1189.00   16.30505   0.53078
 1190.00   16.24427   0.52335
 1191.00   16.18458   0.51606
 1192.00   16.12532   0.50881
 1193.00   16.06647   0.50161
 1194.00   16.00805   0.49444
 1195.00   15.95004   0.48730
 1196.00   15.89243   0.48017
 1197.00   15.83522   0.47306
 1198.00   15.77840   0.46595
 1199.00   15.72197   0.45885
 1200.00   15.66593   0.45173
 1201.00   15.61066   0.44475
 1202.00   15.55576   0.43777
 1203.00   15.50124   0.43078
 1204.00   15.44709   0.42381
 1205.00   15.39331   0.41686
 1206.00   15.33991   0.40994
 1207.00   15.28687   0.40305
 1208.00   15.23421   0.39622
 1209.00   15.18191   0.38943
 1210.00   15.12998   0.38271
 1211.00   15.07878   0.37616
 1212.00   15.02793   0.36968
 1213.00   14.97743   0.36325
 1214.00   14.92727   0.35688
 1215.00   14.87744   0.35056
 1216.00   14.82793   0.34428
 1217.00   14.77873   0.33804
 1218.00   14.72984   0.33182
 1219.00   14.68123   0.32564
 1220.00   14.63291   0.31948
 1221.00   14.58505   0.31357
 1222.00   14.53748   0.30769
 1223.00   14.49019   0.30183
 1224.00   14.44320   0.29600
 1225.00   14.39651   0.29019
 1226.00   14.35013   0.28441
 1227.00   14.30407   0.27866
 1228.00   14.25834   0.27294
 1229.00   14.21294   0.26725
 1230.00   14.16789   0.26160
 1231.00   14.12331   0.25607
 1232.00   14.07908   0.25057
 1233.00   14.03517   0.24512
 1234.00   13.99156   0.23971
 1235.00   13.94826   0.23434
 1236.00   13.90525   0.22902
 1237.00   13.86251   0.22374
 1238.00   13.82004   0.21852
 1239.00   13.77781   0.21336
 1240.00   13.73583   0.20825
 1241.00   13.69411   0.20343
 1242.00   13.65263   0.19866
 1243.00   13.61139   0.19395
 1244.00   13.57039   0.18929
 1245.00   13.52964   0.18468
 1246.00   13.48916   0.18012
 1247.00   13.44893   0.17561
 1248.00   13.40898   0.17114
 1249.00   13.36929   0.16671
 1250.00   13.32989   0.16232
 1251.00   13.29067   0.15808
 1252.00   13.25174   0.15388
 1253.00   13.21307   0.14971
 1254.00   13.17468   0.14558
 1255.00   13.13655   0.14148
 1256.00   13.09868   0.13741
 1257.00   13.06107   0.13337
 1258.00   13.02371   0.12936
 1259.00   12.98659   0.12539
 1260.00   12.94972   0.12145
 1261.00   12.91314   0.11780
 1262.00   12.87679   0.11419
 1263.00   12.84068   0.11062
 1264.00   12.80480   0.10710
 1265.00   12.76914   0.10364
 1266.00   12.73371   0.10023
 1267.00   12.69850   0.09690
 1268.00   12.66350   0.09363
 1269.00   12.62872   0.09044
 1270.00   12.59416   0.08733
 1271.00   12.55954   0.08424
 1272.00   12.52514   0.08122
 1273.00   12.49095   0.07828
 1274.00   12.45699   0.07540
 1275.00   12.42325   0.07257
 1276.00   12.38974   0.06980
 1277.00   12.35646   0.06707
 1278.00   12.32341   0.06437
 1279.00   12.29061   0.06170
 1280.00   12.25804   0.05905
 1281.00   12.22546   0.05680
 1282.00   12.19311   0.05457
 1283.00   12.16101   0.05237
 1284.00   12.12914   0.05020
 1285.00   12.09751   0.04809
 1286.00   12.06611   0.04602
 1287.00   12.03494   0.04402
 1288.00   12.00400   0.04209
 1289.00   11.97329   0.04023
 1290.00   11.94280   0.03846
 1291.00   11.91232   0.03691
 1292.00   11.88207   0.03544
 1293.00   11.85204   0.03406
 1294.00   11.82222   0.03275
 1295.00   11.79263   0.03151
 1296.00   11.76325   0.03034
 1297.00   11.73410   0.02922
 1298.00   11.70516   0.02816
 1299.00   11.67643   0.02716
 1300.00   11.63592   0.08025
 1301.00   11.60714   0.08020
 1302.00   11.57856   0.08019
 1303.00   11.55019   0.08025
 1304.00   11.52202   0.08036
 1305.00   11.49405   0.08054
 1306.00   11.46627   0.08078
 1307.00   11.43869   0.08108
 1308.00   11.41130   0.08146
 1309.00   11.38409   0.08191
 1310.00   11.35708   0.08243
 1311.00   11.32992   0.08301
 1312.00   11.30295   0.08367
 1313.00   11.27617   0.08442
 1314.00   11.24958   0.08525
 1315.00   11.22318   0.08617
 1316.00   11.19699   0.08719
 1317.00   11.17099   0.08830
 1318.00   11.14519   0.08951
 1319.00   11.11961   0.09082
 1320.00   11.09423   0.09224
 1321.00   11.06855   0.09385
 1322.00   11.04308   0.09555
 1323.00   11.01782   0.09737
 1324.00   10.99278   0.09928
 1325.00   10.96794   0.10129
 1326.00   10.94332   0.10339
 1327.00   10.91891   0.10559
 1328.00   10.89471   0.10787
 1329.00   10.87073   0.11025
 1330.00   10.84695   0.11270
 1331.00   10.82298   0.11535
 1332.00   10.79922   0.11809
 1333.00   10.77567   0.12091
 1334.00   10.75235   0.12384
 1335.00   10.72925   0.12686
 1336.00   10.70637   0.12998
 1337.00   10.68372   0.13322
 1338.00   10.66130   0.13656
 1339.00   10.63912   0.14003
 1340.00   10.61717   0.14361
 1341.00   10.59496   0.14734
 1342.00   10.57298   0.15119
 1343.00   10.55124   0.15516
 1344.00   10.52972   0.15926
 1345.00   10.50842   0.16349
 1346.00   10.48734   0.16784
 1347.00   10.46647   0.17231
 1348.00   10.44582   0.17690
 1349.00   10.42537   0.18162
 1350.00   10.40512   0.18645
 1351.00   10.38439   0.19144
 1352.00   10.36387   0.19654
 1353.00   10.34357   0.20178
 1354.00   10.32349   0.20713
 1355.00   10.30364   0.21261
 1356.00   10.28404   0.21823
 1357.00   10.26469   0.22397
 1358.00   10.24560   0.22984
 1359.00   10.22677   0.23584
 1360.00   10.20823   0.24198
 1361.00   10.18929   0.24811
 1362.00   10.17062   0.25438
 1363.00   10.15223   0.26080
 1364.00   10.13410   0.26738
 1365.00   10.11623   0.27412
 1366.00   10.09860   0.28103
 1367.00   10.08121   0.28812
 1368.00   10.06406   0.29539
 1369.00   10.04714   0.30285
 1370.00   10.03044   0.31051
 1371.00   10.01327   0.31802
 1372.00    9.99632   0.32574
 1373.00    9.97960   0.33365
 1374.00    9.96312   0.34175
 1375.00    9.94688   0.35005
 1376.00    9.93089   0.35855
 1377.00    9.91517   0.36723
 1378.00    9.89971   0.37609
 1379.00    9.88453   0.38514
 1380.00    9.86964   0.39437
 1381.00    9.85443   0.40338
 1382.00    9.83951   0.41258
 1383.00    9.82489   0.42197
 1384.00    9.81056   0.43157
 1385.00    9.79652   0.44138
 1386.00    9.78278   0.45141
 1387.00    9.76934   0.46168
 1388.00    9.75619   0.47218
 1389.00    9.74334   0.48293
 1390.00    9.73079   0.49394
 1391.00    9.71729   0.50465
 1392.00    9.70409   0.51563
 1393.00    9.69120   0.52689
 1394.00    9.67864   0.53843
 1395.00    9.66640   0.55027
 1396.00    9.65449   0.56240
 1397.00    9.64292   0.57485
 1398.00    9.63170   0.58761
 1399.00    9.62084   0.60069
 1400.00    9.61035   0.61411
 1401.00    9.59940   0.62723
 1402.00    9.58882   0.64069
 1403.00    9.57862   0.65451
 1404.00    9.56879   0.66868
 1405.00    9.55933   0.68321
 1406.00    9.55024   0.69811
 1407.00    9.54152   0.71337
 1408.00    9.53317   0.72902
 1409.00    9.52519   0.74504
 1410.00    9.51758   0.76145
 1411.00    9.50898   0.77704
 1412.00    9.50076   0.79304
 1413.00    9.49292   0.80946
 1414.00    9.48548   0.82631
 1415.00    9.47842   0.84360
 1416.00    9.47177   0.86135
 1417.00    9.46554   0.87957
 1418.00    9.45971   0.89828
 1419.00    9.45432   0.91748
 1420.00    9.44935   0.93721
 1421.00    9.44371   0.95602
 1422.00    9.43851   0.97538
 1423.00    9.43376   0.99531
 1424.00    9.42947   1.01584
 1425.00    9.42564   1.03697
 1426.00    9.42228   1.05874
 1427.00    9.41939   1.08115
 1428.00    9.41698   1.10424
 1429.00    9.41506   1.12803
 1430.00    9.41362   1.15253
 1431.00    9.41091   1.17544
 1432.00    9.40869   1.19911
 1433.00    9.40697   1.22355
 1434.00    9.40574   1.24880
 1435.00    9.40502   1.27488
 1436.00    9.40480   1.30180
 1437.00    9.40509   1.32959
 1438.00    9.40588   1.35827
 1439.00    9.40717   1.38787
 1440.00    9.40898   1.41842
 1441.00    9.40940   1.44705
 1442.00    9.41035   1.47670
 1443.00    9.41183   1.50739
 1444.00    9.41387   1.53915
 1445.00    9.41646   1.57203
 1446.00    9.41963   1.60606
 1447.00    9.42338   1.64129
 1448.00    9.42774   1.67775
 1449.00    9.43270   1.71550
 1450.00    9.43828   1.75457
 1451.00    9.44192   1.79023
 1452.00    9.44616   1.82733
 1453.00    9.45093   1.86592
 1454.00    9.45621   1.90608
 1455.00    9.46195   1.94786
 1456.00    9.46811   1.99133
 1457.00    9.47463   2.03656
 1458.00    9.48148   2.08361
 1459.00    9.48860   2.13255
 1460.00    9.49595   2.18347
 1461.00    9.50005   2.22886
 1462.00    9.50441   2.27638
 1463.00    9.50916   2.32608
 1464.00    9.51437   2.37808
 1465.00    9.52014   2.43246
 1466.00    9.52655   2.48932
 1467.00    9.53368   2.54878
 1468.00    9.54161   2.61095
 1469.00    9.55040   2.67596
 1470.00    9.56012   2.74394
 1471.00    9.56523   2.79904
 1472.00    9.57070   2.85741
 1473.00    9.57590   2.91921
 1474.00    9.58022   2.98455
 1475.00    9.58300   3.05355
 1476.00    9.58363   3.12629
 1477.00    9.58147   3.20283
 1478.00    9.57589   3.28319
 1479.00    9.56627   3.36733
 1480.00    9.55200   3.45517
 1481.00    9.55675   3.49348
 1482.00    9.55711   3.53473
 1483.00    9.55395   3.57841
 1484.00    9.54816   3.62406
 1485.00    9.54062   3.67133
 1486.00    9.53223   3.72001
 1487.00    9.52382   3.76997
 1488.00    8.99139   3.97728
 1489.00    8.68282   4.07502
 1490.00    8.44230   4.13927
 1491.00    8.29272   4.22090
 1492.00    8.16101   4.29003
 1493.00    8.04087   4.34967
 1494.00    7.92856   4.40169
 1495.00    7.82161   4.44738
 1496.00    7.71825   4.48770
 1497.00    7.61714   4.52337
 1498.00    7.51723   4.55499
 1499.00    7.41768   4.58302
 1500.00    7.31783   4.60788
 1501.00    7.22455   4.65386
 1502.00    7.13036   4.69681
 1503.00    7.03526   4.73651
 1504.00    6.93930   4.77276
 1505.00    6.84254   4.80533
 1506.00    6.74508   4.83403
 1507.00    6.64703   4.85864
 1508.00    6.54852   4.87897
 1509.00    6.44970   4.89482
 1510.00    6.35071   4.90601
 1511.00    6.25603   4.93627
 1512.00    6.16151   4.96171
 1513.00    6.06733   4.98235
 1514.00    5.97365   4.99823
 1515.00    5.88066   5.00938
 1516.00    5.78852   5.01586
 1517.00    5.69740   5.01773
 1518.00    5.60746   5.01504
 1519.00    5.51887   5.00788
 1520.00    5.43180   4.99634
 1521.00    5.34043   5.00204
 1522.00    5.25083   5.00359
 1523.00    5.16312   5.00112
 1524.00    5.07742   4.99479
 1525.00    4.99387   4.98475
 1526.00    4.91261   4.97118
 1527.00    4.83381   4.95423
 1528.00    4.75764   4.93406
 1529.00    4.68430   4.91084
 1530.00    4.61398   4.88472
 1531.00    4.53374   4.87018
 1532.00    4.45668   4.85299
 1533.00    4.38275   4.83325
 1534.00    4.31193   4.81110
 1535.00    4.24421   4.78668
 1536.00    4.17957   4.76013
 1537.00    4.11799   4.73164
 1538.00    4.05947   4.70139
 1539.00    4.00398   4.66958
 1540.00    3.95149   4.63645
 1541.00    3.88990   4.60818
 1542.00    3.83131   4.57890
 1543.00    3.77570   4.54868
 1544.00    3.72306   4.51763
 1545.00    3.67332   4.48582
 1546.00    3.62641   4.45338
 1547.00    3.58222   4.42043
 1548.00    3.54065   4.38707
 1549.00    3.50156   4.35346
 1550.00    3.46481   4.31972
 1551.00    3.42024   4.28772
 1552.00    3.37775   4.25583
 1553.00    3.33724   4.22412
 1554.00    3.29861   4.19266
 1555.00    3.26173   4.16153
 1556.00    3.22648   4.13077
 1557.00    3.19273   4.10043
 1558.00    3.16033   4.07055
 1559.00    3.12915   4.04117
 1560.00    3.09904   4.01230
 1561.00    3.06201   3.98578
 1562.00    3.02579   3.95984
 1563.00    2.99025   3.93452
 1564.00    2.95529   3.90986
 1565.00    2.92079   3.88592
 1566.00    2.88665   3.86272
 1567.00    2.85277   3.84031
 1568.00    2.81907   3.81874
 1569.00    2.78545   3.79803
 1570.00    2.75185   3.77823
 1571.00    2.70905   3.76103
 1572.00    2.66618   3.74482
 1573.00    2.62320   3.72966
 1574.00    2.58011   3.71558
 1575.00    2.53691   3.70265
 1576.00    2.49360   3.69090
 1577.00    2.45020   3.68038
 1578.00    2.40673   3.67112
 1579.00    2.36322   3.66317
 1580.00    2.32438   3.61785
 1581.00    2.28553   3.57390
 1582.00    2.24673   3.53132
 1583.00    2.20804   3.49014
 1584.00    2.16952   3.45037
 1585.00    2.13121   3.41201
 1586.00    2.09318   3.37506
 1587.00    2.05547   3.33951
 1588.00    2.01812   3.30533
 1589.00    1.98116   3.27252
 1590.00    1.94462   3.24104
 1591.00    1.90853   3.21087
 1592.00    1.87292   3.18201
 1593.00    1.83784   3.15446
 1594.00    1.80331   3.12823
 1595.00    1.76937   3.10328
 1596.00    1.73602   3.07962
 1597.00    1.70328   3.05721
 1598.00    1.67116   3.03603
 1599.00    1.63963   3.01602
 1600.00    1.60870   2.99716
 1601.00    1.57833   2.97941
 1602.00    1.54849   2.96277
 1603.00    1.51914   2.94726
 1604.00    1.49023   2.93288
 1605.00    1.46174   2.91964
 1606.00    1.43363   2.90753
 1607.00    1.40589   2.89655
 1608.00    1.37848   2.88668
 1609.00    1.35139   2.87791
 1610.00    1.32462   2.87021
 1611.00    1.29813   2.86357
 1612.00    1.27184   2.85795
 1613.00    1.24564   2.85335
 1614.00    1.21942   2.84975
 1615.00    1.19310   2.84713
 1616.00    1.16660   2.84546
 1617.00    1.13987   2.84475
 1618.00    1.11285   2.84495
 1619.00    1.08550   2.84606
 1620.00    1.05779   2.84806
 1621.00    1.02970   2.85090
 1622.00    1.00118   2.85458
 1623.00     .97216   2.85903
 1624.00     .94259   2.86425
 1625.00     .91242   2.87018
 1626.00     .88159   2.87679
 1627.00     .85006   2.88406
 1628.00     .81778   2.89194
 1629.00     .78470   2.90041
 1630.00     .75078   2.90942
 1631.00     .71597   2.91893
 1632.00     .68026   2.92888
 1633.00     .64359   2.93920
 1634.00     .60593   2.94983
 1635.00     .56725   2.96070
 1636.00     .52753   2.97172
 1637.00     .48673   2.98284
 1638.00     .44484   2.99399
 1639.00     .40182   3.00508
 1640.00     .35765   3.01605
 1641.00     .31233   3.02682
 1642.00     .26586   3.03730
 1643.00     .21827   3.04741
 1644.00     .16956   3.05706
 1645.00     .11977   3.06616
 1646.00     .06891   3.07462
 1647.00     .01702   3.08235
 1648.00    -.03588   3.08928
 1649.00    -.08977   3.09533
 1650.00    -.14460   3.10040
 1651.00    -.20035   3.10443
 1652.00    -.25694   3.10734
 1653.00    -.31430   3.10906
 1654.00    -.37237   3.10954
 1655.00    -.43105   3.10872
 1656.00    -.49027   3.10655
 1657.00    -.54995   3.10300
 1658.00    -.60999   3.09804
 1659.00    -.67031   3.09163
 1660.00    -.73082   3.08377
 1661.00    -.79142   3.07445
 1662.00    -.85202   3.06365
 1663.00    -.91250   3.05138
 1664.00    -.97278   3.03763
 1665.00   -1.03274   3.02243
 1666.00   -1.09230   3.00580
 1667.00   -1.15137   2.98775
 1668.00   -1.20987   2.96834
 1669.00   -1.26771   2.94761
 1670.00   -1.32484   2.92560
 1671.00   -1.38117   2.90237
 1672.00   -1.43668   2.87799
 1673.00   -1.49131   2.85254
 1674.00   -1.54506   2.82610
 1675.00   -1.59789   2.79873
 1676.00   -1.64979   2.77051
 1677.00   -1.70075   2.74152
 1678.00   -1.75078   2.71182
 1679.00   -1.79987   2.68149
 1680.00   -1.84803   2.65058
 1681.00   -1.89528   2.61916
 1682.00   -1.94164   2.58727
 1683.00   -1.98713   2.55494
 1684.00   -2.03177   2.52219
 1685.00   -2.07559   2.48905
 1686.00   -2.11860   2.45554
 1687.00   -2.16082   2.42168
 1688.00   -2.20228   2.38749
 1689.00   -2.24299   2.35298
 1690.00   -2.28297   2.31818
 1691.00   -2.32224   2.28308
 1692.00   -2.36082   2.24769
 1693.00   -2.39871   2.21201
 1694.00   -2.43594   2.17604
 1695.00   -2.47251   2.13976
 1696.00   -2.50844   2.10318
 1697.00   -2.54372   2.06630
 1698.00   -2.57837   2.02911
 1699.00   -2.61239   1.99162
 1700.00   -2.64578   1.95381
 1701.00   -2.67853   1.91569
 1702.00   -2.71064   1.87726
 1703.00   -2.74208   1.83852
 1704.00   -2.77282   1.79947
 1705.00   -2.80286   1.76011
 1706.00   -2.83216   1.72046
 1707.00   -2.86072   1.68052
 1708.00   -2.88850   1.64031
 1709.00   -2.91550   1.59983
 1710.00   -2.94170   1.55911
 1711.00   -2.96708   1.51815
 1712.00   -2.99163   1.47697
 1713.00   -3.01536   1.43560
 1714.00   -3.03826   1.39403
 1715.00   -3.06033   1.35229
 1716.00   -3.08158   1.31040
 1717.00   -3.10199   1.26837
 1718.00   -3.12157   1.22622
 1719.00   -3.14034   1.18396
 1720.00   -3.15828   1.14161
 1721.00   -3.17542   1.09919
 1722.00   -3.19174   1.05673
 1723.00   -3.20724   1.01426
 1724.00   -3.22193    .97179
 1725.00   -3.23580    .92937
 1726.00   -3.24885    .88702
 1727.00   -3.26109    .84477
 1728.00   -3.27251    .80264
 1729.00   -3.28313    .76065
 1730.00   -3.29295    .71884
 1731.00   -3.30197    .67723
 1732.00   -3.31020    .63582
 1733.00   -3.31766    .59465
 1734.00   -3.32437    .55372
 1735.00   -3.33033    .51304
 1736.00   -3.33556    .47264
 1737.00   -3.34008    .43253
 1738.00   -3.34390    .39271
 1739.00   -3.34705    .35319
 1740.00   -3.34952    .31399
 1741.00   -3.35135    .27511
 1742.00   -3.35255    .23657
 1743.00   -3.35313    .19840
