   W          E2-(pi+_n)
 (MeV)       Re        Im
 1080.00    0.61905   0.00070
 1081.00    0.70361   0.00082
 1082.00    0.78651   0.00095
 1083.00    0.86777   0.00108
 1084.00    0.94745   0.00121
 1085.00    1.02558   0.00135
 1086.00    1.10219   0.00149
 1087.00    1.17733   0.00163
 1088.00    1.25102   0.00179
 1089.00    1.32331   0.00194
 1090.00    1.39421   0.00210
 1091.00    1.46378   0.00227
 1092.00    1.53203   0.00244
 1093.00    1.59899   0.00262
 1094.00    1.66470   0.00280
 1095.00    1.72919   0.00298
 1096.00    1.79248   0.00318
 1097.00    1.85459   0.00337
 1098.00    1.91557   0.00358
 1099.00    1.97542   0.00379
 1100.00    2.03418   0.00400
 1101.00    2.09187   0.00422
 1102.00    2.14851   0.00445
 1103.00    2.20413   0.00468
 1104.00    2.25874   0.00492
 1105.00    2.31238   0.00517
 1106.00    2.36506   0.00542
 1107.00    2.41681   0.00567
 1108.00    2.46763   0.00594
 1109.00    2.51756   0.00621
 1110.00    2.56661   0.00649
 1111.00    2.61479   0.00677
 1112.00    2.66214   0.00706
 1113.00    2.70866   0.00736
 1114.00    2.75438   0.00766
 1115.00    2.79931   0.00798
 1116.00    2.84346   0.00829
 1117.00    2.88686   0.00862
 1118.00    2.92951   0.00896
 1119.00    2.97144   0.00930
 1120.00    3.01265   0.00965
 1121.00    3.05317   0.01000
 1122.00    3.09301   0.01037
 1123.00    3.13218   0.01074
 1124.00    3.17069   0.01112
 1125.00    3.20856   0.01151
 1126.00    3.24580   0.01191
 1127.00    3.28243   0.01231
 1128.00    3.31845   0.01273
 1129.00    3.35388   0.01315
 1130.00    3.38873   0.01358
 1131.00    3.42301   0.01402
 1132.00    3.45673   0.01447
 1133.00    3.48991   0.01493
 1134.00    3.52255   0.01539
 1135.00    3.55467   0.01587
 1136.00    3.58627   0.01636
 1137.00    3.61737   0.01685
 1138.00    3.64797   0.01736
 1139.00    3.67809   0.01787
 1140.00    3.70773   0.01840
 1141.00    3.73691   0.01893
 1142.00    3.76563   0.01947
 1143.00    3.79390   0.02003
 1144.00    3.82173   0.02059
 1145.00    3.84913   0.02117
 1146.00    3.87611   0.02175
 1147.00    3.90267   0.02235
 1148.00    3.92883   0.02296
 1149.00    3.95458   0.02358
 1150.00    3.97995   0.02421
 1151.00    4.00493   0.02485
 1152.00    4.02953   0.02550
 1153.00    4.05376   0.02616
 1154.00    4.07764   0.02684
 1155.00    4.10115   0.02752
 1156.00    4.12432   0.02822
 1157.00    4.14715   0.02893
 1158.00    4.16964   0.02965
 1159.00    4.19180   0.03039
 1160.00    4.21364   0.03114
 1161.00    4.23516   0.03190
 1162.00    4.25637   0.03267
 1163.00    4.27727   0.03345
 1164.00    4.29788   0.03425
 1165.00    4.31819   0.03506
 1166.00    4.33821   0.03589
 1167.00    4.35796   0.03673
 1168.00    4.37742   0.03758
 1169.00    4.39661   0.03844
 1170.00    4.41554   0.03932
 1171.00    4.43420   0.04022
 1172.00    4.45261   0.04112
 1173.00    4.47076   0.04204
 1174.00    4.48867   0.04298
 1175.00    4.50634   0.04393
 1176.00    4.52377   0.04490
 1177.00    4.54096   0.04588
 1178.00    4.55793   0.04688
 1179.00    4.57467   0.04789
 1180.00    4.59119   0.04891
 1181.00    4.60750   0.04996
 1182.00    4.62359   0.05102
 1183.00    4.63948   0.05209
 1184.00    4.65516   0.05318
 1185.00    4.67065   0.05429
 1186.00    4.68594   0.05541
 1187.00    4.70103   0.05655
 1188.00    4.71594   0.05771
 1189.00    4.73066   0.05889
 1190.00    4.74521   0.06008
 1191.00    4.75957   0.06129
 1192.00    4.77376   0.06252
 1193.00    4.78778   0.06376
 1194.00    4.80164   0.06503
 1195.00    4.81533   0.06631
 1196.00    4.82886   0.06761
 1197.00    4.84223   0.06893
 1198.00    4.85545   0.07027
 1199.00    4.86852   0.07163
 1200.00    4.88145   0.07300
 1201.00    4.89422   0.07440
 1202.00    4.90686   0.07582
 1203.00    4.91936   0.07725
 1204.00    4.93172   0.07871
 1205.00    4.94395   0.08019
 1206.00    4.95605   0.08169
 1207.00    4.96802   0.08321
 1208.00    4.97987   0.08475
 1209.00    4.99159   0.08631
 1210.00    5.00320   0.08789
 1211.00    5.01469   0.08950
 1212.00    5.02607   0.09113
 1213.00    5.03733   0.09278
 1214.00    5.04849   0.09445
 1215.00    5.05954   0.09615
 1216.00    5.07049   0.09787
 1217.00    5.08134   0.09961
 1218.00    5.09208   0.10138
 1219.00    5.10274   0.10317
 1220.00    5.11329   0.10498
 1221.00    5.12376   0.10682
 1222.00    5.13413   0.10869
 1223.00    5.14442   0.11058
 1224.00    5.15463   0.11249
 1225.00    5.16475   0.11444
 1226.00    5.17479   0.11640
 1227.00    5.18475   0.11840
 1228.00    5.19463   0.12042
 1229.00    5.20444   0.12247
 1230.00    5.21418   0.12454
 1231.00    5.22385   0.12664
 1232.00    5.23345   0.12878
 1233.00    5.24299   0.13094
 1234.00    5.25246   0.13312
 1235.00    5.26186   0.13534
 1236.00    5.27121   0.13759
 1237.00    5.28050   0.13987
 1238.00    5.28973   0.14217
 1239.00    5.29891   0.14451
 1240.00    5.30804   0.14688
 1241.00    5.31711   0.14928
 1242.00    5.32614   0.15171
 1243.00    5.33512   0.15417
 1244.00    5.34405   0.15667
 1245.00    5.35294   0.15920
 1246.00    5.36179   0.16176
 1247.00    5.37060   0.16436
 1248.00    5.37937   0.16699
 1249.00    5.38810   0.16965
 1250.00    5.39680   0.17235
 1251.00    5.40547   0.17509
 1252.00    5.41410   0.17786
 1253.00    5.42270   0.18067
 1254.00    5.43128   0.18351
 1255.00    5.43983   0.18639
 1256.00    5.44835   0.18931
 1257.00    5.45685   0.19227
 1258.00    5.46533   0.19527
 1259.00    5.47379   0.19831
 1260.00    5.48223   0.20139
 1261.00    5.49066   0.20450
 1262.00    5.49907   0.20766
 1263.00    5.50746   0.21086
 1264.00    5.51585   0.21411
 1265.00    5.52422   0.21739
 1266.00    5.53258   0.22072
 1267.00    5.54094   0.22410
 1268.00    5.54929   0.22751
 1269.00    5.55763   0.23098
 1270.00    5.56598   0.23449
 1271.00    5.57432   0.23804
 1272.00    5.58266   0.24165
 1273.00    5.59100   0.24530
 1274.00    5.59935   0.24900
 1275.00    5.60770   0.25275
 1276.00    5.61605   0.25655
 1277.00    5.62441   0.26040
 1278.00    5.63279   0.26430
 1279.00    5.64117   0.26825
 1280.00    5.64956   0.27226
 1281.00    5.65797   0.27632
 1282.00    5.66639   0.28044
 1283.00    5.67483   0.28461
 1284.00    5.68329   0.28884
 1285.00    5.69177   0.29313
 1286.00    5.70026   0.29747
 1287.00    5.70878   0.30187
 1288.00    5.71732   0.30634
 1289.00    5.72589   0.31086
 1290.00    5.73448   0.31545
 1291.00    5.74310   0.32010
 1292.00    5.75175   0.32481
 1293.00    5.76043   0.32959
 1294.00    5.76914   0.33443
 1295.00    5.77789   0.33934
 1296.00    5.78667   0.34432
 1297.00    5.79548   0.34937
 1298.00    5.80434   0.35449
 1299.00    5.81323   0.35968
 1300.00    5.82217   0.36494
 1301.00    5.83114   0.37028
 1302.00    5.84016   0.37569
 1303.00    5.84923   0.38118
 1304.00    5.85834   0.38674
 1305.00    5.86750   0.39239
 1306.00    5.87671   0.39812
 1307.00    5.88597   0.40392
 1308.00    5.89528   0.40981
 1309.00    5.90464   0.41579
 1310.00    5.91406   0.42185
 1311.00    5.92354   0.42800
 1312.00    5.93308   0.43424
 1313.00    5.94267   0.44057
 1314.00    5.95233   0.44699
 1315.00    5.96204   0.45351
 1316.00    5.97183   0.46012
 1317.00    5.98167   0.46683
 1318.00    5.99159   0.47364
 1319.00    6.00157   0.48055
 1320.00    6.01162   0.48756
 1321.00    6.02175   0.49468
 1322.00    6.03194   0.50191
 1323.00    6.04221   0.50924
 1324.00    6.05256   0.51669
 1325.00    6.06298   0.52424
 1326.00    6.07348   0.53192
 1327.00    6.08407   0.53971
 1328.00    6.09473   0.54762
 1329.00    6.10548   0.55565
 1330.00    6.11631   0.56381
 1331.00    6.12723   0.57209
 1332.00    6.13823   0.58050
 1333.00    6.14933   0.58905
 1334.00    6.16052   0.59772
 1335.00    6.17179   0.60654
 1336.00    6.18317   0.61550
 1337.00    6.19464   0.62459
 1338.00    6.20620   0.63384
 1339.00    6.21786   0.64323
 1340.00    6.22963   0.65277
 1341.00    6.24149   0.66247
 1342.00    6.25346   0.67232
 1343.00    6.26553   0.68234
 1344.00    6.27771   0.69252
 1345.00    6.28999   0.70287
 1346.00    6.30239   0.71339
 1347.00    6.31489   0.72408
 1348.00    6.32751   0.73495
 1349.00    6.34024   0.74601
 1350.00    6.35308   0.75725
 1351.00    6.36604   0.76868
 1352.00    6.37912   0.78030
 1353.00    6.39232   0.79212
 1354.00    6.40564   0.80415
 1355.00    6.41907   0.81638
 1356.00    6.43264   0.82883
 1357.00    6.44633   0.84149
 1358.00    6.46014   0.85437
 1359.00    6.47408   0.86748
 1360.00    6.48815   0.88082
 1361.00    6.50235   0.89439
 1362.00    6.51668   0.90821
 1363.00    6.53114   0.92227
 1364.00    6.54573   0.93659
 1365.00    6.56046   0.95116
 1366.00    6.57533   0.96600
 1367.00    6.59033   0.98111
 1368.00    6.60547   0.99650
 1369.00    6.62075   1.01217
 1370.00    6.63617   1.02812
 1371.00    6.65172   1.04438
 1372.00    6.66742   1.06094
 1373.00    6.68326   1.07780
 1374.00    6.69924   1.09499
 1375.00    6.71537   1.11250
 1376.00    6.73164   1.13034
 1377.00    6.74805   1.14852
 1378.00    6.76460   1.16706
 1379.00    6.78130   1.18595
 1380.00    6.79814   1.20520
 1381.00    6.81513   1.22483
 1382.00    6.83226   1.24485
 1383.00    6.84953   1.26525
 1384.00    6.86695   1.28606
 1385.00    6.88451   1.30728
 1386.00    6.90221   1.32893
 1387.00    6.92005   1.35101
 1388.00    6.93803   1.37353
 1389.00    6.95615   1.39650
 1390.00    6.97440   1.41994
 1391.00    6.99279   1.44386
 1392.00    7.01132   1.46826
 1393.00    7.02997   1.49317
 1394.00    7.04875   1.51859
 1395.00    7.06766   1.54454
 1396.00    7.08668   1.57103
 1397.00    7.10583   1.59807
 1398.00    7.12509   1.62567
 1399.00    7.14447   1.65386
 1400.00    7.16395   1.68264
 1401.00    7.18353   1.71204
 1402.00    7.20321   1.74206
 1403.00    7.22298   1.77272
 1404.00    7.24283   1.80403
 1405.00    7.26277   1.83603
 1406.00    7.28277   1.86871
 1407.00    7.30284   1.90210
 1408.00    7.32296   1.93621
 1409.00    7.34313   1.97107
 1410.00    7.36333   2.00669
 1411.00    7.38356   2.04309
 1412.00    7.40381   2.08029
 1413.00    7.42406   2.11830
 1414.00    7.44430   2.15716
 1415.00    7.46452   2.19688
 1416.00    7.48471   2.23747
 1417.00    7.50484   2.27897
 1418.00    7.52490   2.32139
 1419.00    7.54488   2.36476
 1420.00    7.56475   2.40909
 1421.00    7.58451   2.45441
 1422.00    7.60411   2.50074
 1423.00    7.62356   2.54810
 1424.00    7.64281   2.59653
 1425.00    7.66185   2.64603
 1426.00    7.68065   2.69664
 1427.00    7.69918   2.74837
 1428.00    7.71742   2.80126
 1429.00    7.73533   2.85532
 1430.00    7.75287   2.91058
 1431.00    7.77002   2.96707
 1432.00    7.78674   3.02480
 1433.00    7.80299   3.08380
 1434.00    7.81873   3.14409
 1435.00    7.83392   3.20569
 1436.00    7.84850   3.26863
 1437.00    7.86244   3.33293
 1438.00    7.87569   3.39861
 1439.00    7.88819   3.46568
 1440.00    7.89988   3.53416
 1441.00    7.91072   3.60408
 1442.00    7.92064   3.67545
 1443.00    7.92958   3.74828
 1444.00    7.93747   3.82258
 1445.00    7.94425   3.89837
 1446.00    7.94985   3.97565
 1447.00    7.95418   4.05443
 1448.00    7.95718   4.13471
 1449.00    7.95877   4.21650
 1450.00    7.95886   4.29979
 1451.00    7.95736   4.38457
 1452.00    7.95420   4.47083
 1453.00    7.94928   4.55857
 1454.00    7.94250   4.64775
 1455.00    7.93377   4.73836
 1456.00    7.92300   4.83038
 1457.00    7.91008   4.92376
 1458.00    7.89492   5.01846
 1459.00    7.87740   5.11445
 1460.00    7.85742   5.21166
 1461.00    7.83489   5.31004
 1462.00    7.80968   5.40952
 1463.00    7.78170   5.51004
 1464.00    7.75085   5.61150
 1465.00    7.71700   5.71381
 1466.00    7.68007   5.81689
 1467.00    7.63995   5.92061
 1468.00    7.59654   6.02487
 1469.00    7.54974   6.12954
 1470.00    7.49947   6.23449
 1471.00    7.44563   6.33957
 1472.00    7.38816   6.44463
 1473.00    7.32697   6.54951
 1474.00    7.26200   6.65405
 1475.00    7.19319   6.75805
 1476.00    7.12049   6.86134
 1477.00    7.04387   6.96372
 1478.00    6.96330   7.06499
 1479.00    6.87877   7.16495
 1480.00    6.79027   7.26338
 1481.00    6.69782   7.36006
 1482.00    6.60145   7.45477
 1483.00    6.50120   7.54729
 1484.00    6.39712   7.63740
 1485.00    6.28930   7.72486
 1486.00    6.17782   7.80946
 1487.00    6.06280   7.89098
 1488.00    5.94435   7.96920
 1489.00    5.82262   8.04391
 1490.00    5.69777   8.11491
 1491.00    5.56997   8.18200
 1492.00    5.43941   8.24501
 1493.00    5.30629   8.30376
 1494.00    5.17084   8.35810
 1495.00    5.03328   8.40788
 1496.00    4.89385   8.45298
 1497.00    4.75280   8.49329
 1498.00    4.61040   8.52871
 1499.00    4.46691   8.55918
 1500.00    4.32260   8.58464
 1501.00    4.17774   8.60506
 1502.00    4.03261   8.62042
 1503.00    3.88749   8.63073
 1504.00    3.74265   8.63603
 1505.00    3.59835   8.63634
 1506.00    3.45487   8.63174
 1507.00    3.31245   8.62231
 1508.00    3.17135   8.60815
 1509.00    3.03180   8.58937
 1510.00    2.89404   8.56611
 1511.00    2.75826   8.53851
 1512.00    2.62468   8.50673
 1513.00    2.49349   8.47093
 1514.00    2.36484   8.43130
 1515.00    2.23891   8.38802
 1516.00    2.11582   8.34128
 1517.00    1.99572   8.29128
 1518.00    1.87870   8.23823
 1519.00    1.76486   8.18232
 1520.00    1.65429   8.12377
 1521.00    1.54704   8.06277
 1522.00    1.44316   7.99954
 1523.00    1.34270   7.93428
 1524.00    1.24567   7.86718
 1525.00    1.15208   7.79844
 1526.00    1.06194   7.72825
 1527.00    0.97523   7.65679
 1528.00    0.89193   7.58425
 1529.00    0.81201   7.51080
 1530.00    0.73541   7.43659
 1531.00    0.66211   7.36180
 1532.00    0.59204   7.28656
 1533.00    0.52514   7.21103
 1534.00    0.46134   7.13533
 1535.00    0.40057   7.05959
 1536.00    0.34276   6.98394
 1537.00    0.28782   6.90848
 1538.00    0.23567   6.83331
 1539.00    0.18623   6.75854
 1540.00    0.13942   6.68425
 1541.00    0.09513   6.61053
 1542.00    0.05330   6.53744
 1543.00    0.01382   6.46507
 1544.00   -0.02339   6.39346
 1545.00   -0.05842   6.32268
 1546.00   -0.09136   6.25278
 1547.00   -0.12229   6.18380
 1548.00   -0.15130   6.11578
 1549.00   -0.17848   6.04876
 1550.00   -0.20390   5.98277
 1551.00   -0.22765   5.91783
 1552.00   -0.24980   5.85396
 1553.00   -0.27044   5.79119
 1554.00   -0.28964   5.72953
 1555.00   -0.30747   5.66899
 1556.00   -0.32401   5.60958
 1557.00   -0.33932   5.55130
 1558.00   -0.35346   5.49416
 1559.00   -0.36651   5.43815
 1560.00   -0.37853   5.38329
 1561.00   -0.38957   5.32955
 1562.00   -0.39970   5.27694
 1563.00   -0.40897   5.22545
 1564.00   -0.41743   5.17507
 1565.00   -0.42514   5.12579
 1566.00   -0.43215   5.07760
 1567.00   -0.43849   5.03048
 1568.00   -0.44423   4.98443
 1569.00   -0.44939   4.93942
 1570.00   -0.45404   4.89545
 1571.00   -0.45819   4.85249
 1572.00   -0.46190   4.81053
 1573.00   -0.46520   4.76956
 1574.00   -0.46813   4.72955
 1575.00   -0.47071   4.69049
 1576.00   -0.47298   4.65235
 1577.00   -0.47497   4.61512
 1578.00   -0.47671   4.57879
 1579.00   -0.47823   4.54332
 1580.00   -0.47955   4.50871
 1581.00   -0.48070   4.47493
 1582.00   -0.48170   4.44196
 1583.00   -0.48258   4.40979
 1584.00   -0.48335   4.37839
 1585.00   -0.48404   4.34774
 1586.00   -0.48466   4.31783
 1587.00   -0.48524   4.28863
 1588.00   -0.48578   4.26013
 1589.00   -0.48632   4.23231
 1590.00   -0.48685   4.20514
 1591.00   -0.48740   4.17862
 1592.00   -0.48798   4.15271
 1593.00   -0.48861   4.12741
 1594.00   -0.48928   4.10269
 1595.00   -0.49003   4.07854
 1596.00   -0.49085   4.05493
 1597.00   -0.49175   4.03186
 1598.00   -0.49275   4.00930
 1599.00   -0.49386   3.98723
 1600.00   -0.49507   3.96564
 1601.00   -0.49641   3.94452
 1602.00   -0.49787   3.92384
 1603.00   -0.49946   3.90359
 1604.00   -0.50118   3.88375
 1605.00   -0.50305   3.86431
 1606.00   -0.50507   3.84525
 1607.00   -0.50723   3.82656
 1608.00   -0.50955   3.80822
 1609.00   -0.51202   3.79022
 1610.00   -0.51465   3.77255
 1611.00   -0.51745   3.75518
 1612.00   -0.52041   3.73810
 1613.00   -0.52353   3.72131
 1614.00   -0.52682   3.70479
 1615.00   -0.53028   3.68853
 1616.00   -0.53390   3.67250
 1617.00   -0.53769   3.65671
 1618.00   -0.54165   3.64114
 1619.00   -0.54577   3.62577
 1620.00   -0.55006   3.61060
 1621.00   -0.55451   3.59562
 1622.00   -0.55913   3.58080
 1623.00   -0.56390   3.56615
 1624.00   -0.56884   3.55166
 1625.00   -0.57393   3.53730
 1626.00   -0.57918   3.52308
 1627.00   -0.58458   3.50898
 1628.00   -0.59013   3.49499
 1629.00   -0.59582   3.48111
 1630.00   -0.60166   3.46732
 1631.00   -0.60764   3.45363
 1632.00   -0.61375   3.44001
 1633.00   -0.62000   3.42646
 1634.00   -0.62637   3.41298
 1635.00   -0.63287   3.39956
 1636.00   -0.63949   3.38619
 1637.00   -0.64623   3.37286
 1638.00   -0.65308   3.35956
 1639.00   -0.66004   3.34630
 1640.00   -0.66710   3.33307
 1641.00   -0.67426   3.31985
 1642.00   -0.68152   3.30665
 1643.00   -0.68886   3.29346
 1644.00   -0.69629   3.28027
 1645.00   -0.70380   3.26708
 1646.00   -0.71139   3.25389
 1647.00   -0.71905   3.24069
 1648.00   -0.72677   3.22748
 1649.00   -0.73456   3.21425
 1650.00   -0.74240   3.20100
 1651.00   -0.75029   3.18773
 1652.00   -0.75823   3.17444
 1653.00   -0.76621   3.16112
 1654.00   -0.77423   3.14777
 1655.00   -0.78228   3.13438
 1656.00   -0.79036   3.12097
 1657.00   -0.79846   3.10751
 1658.00   -0.80658   3.09402
 1659.00   -0.81472   3.08050
 1660.00   -0.82286   3.06693
 1661.00   -0.83101   3.05332
 1662.00   -0.83916   3.03967
 1663.00   -0.84731   3.02597
 1664.00   -0.85544   3.01224
 1665.00   -0.86357   2.99846
 1666.00   -0.87168   2.98463
 1667.00   -0.87977   2.97077
 1668.00   -0.88783   2.95686
 1669.00   -0.89587   2.94291
 1670.00   -0.90388   2.92891
 1671.00   -0.91185   2.91488
 1672.00   -0.91978   2.90080
 1673.00   -0.92767   2.88668
 1674.00   -0.93551   2.87252
 1675.00   -0.94331   2.85833
 1676.00   -0.95105   2.84410
 1677.00   -0.95874   2.82983
 1678.00   -0.96637   2.81552
 1679.00   -0.97395   2.80118
 1680.00   -0.98145   2.78681
 1681.00   -0.98890   2.77241
 1682.00   -0.99627   2.75798
 1683.00   -1.00358   2.74353
 1684.00   -1.01081   2.72904
 1685.00   -1.01797   2.71454
 1686.00   -1.02505   2.70001
 1687.00   -1.03205   2.68546
 1688.00   -1.03898   2.67089
 1689.00   -1.04582   2.65631
 1690.00   -1.05258   2.64171
 1691.00   -1.05925   2.62710
 1692.00   -1.06584   2.61248
 1693.00   -1.07234   2.59785
 1694.00   -1.07875   2.58321
 1695.00   -1.08507   2.56857
 1696.00   -1.09130   2.55393
 1697.00   -1.09744   2.53928
 1698.00   -1.10349   2.52464
 1699.00   -1.10944   2.51000
 1700.00   -1.11530   2.49537
 1701.00   -1.12107   2.48074
 1702.00   -1.12674   2.46612
 1703.00   -1.13232   2.45152
 1704.00   -1.13780   2.43693
 1705.00   -1.14318   2.42235
 1706.00   -1.14848   2.40780
 1707.00   -1.15367   2.39326
 1708.00   -1.15877   2.37874
 1709.00   -1.16378   2.36425
 1710.00   -1.16869   2.34978
 1711.00   -1.17350   2.33534
 1712.00   -1.17822   2.32093
 1713.00   -1.18285   2.30654
 1714.00   -1.18738   2.29219
 1715.00   -1.19182   2.27788
 1716.00   -1.19616   2.26360
 1717.00   -1.20042   2.24935
 1718.00   -1.20458   2.23515
 1719.00   -1.20865   2.22098
 1720.00   -1.21263   2.20686
 1721.00   -1.21651   2.19278
 1722.00   -1.22031   2.17874
 1723.00   -1.22403   2.16475
 1724.00   -1.22765   2.15081
 1725.00   -1.23119   2.13691
 1726.00   -1.23464   2.12307
 1727.00   -1.23801   2.10928
 1728.00   -1.24129   2.09553
 1729.00   -1.24449   2.08185
 1730.00   -1.24761   2.06821
 1731.00   -1.25065   2.05463
 1732.00   -1.25361   2.04111
 1733.00   -1.25648   2.02765
 1734.00   -1.25929   2.01424
 1735.00   -1.26201   2.00090
 1736.00   -1.26466   1.98761
 1737.00   -1.26723   1.97439
 1738.00   -1.26974   1.96122
 1739.00   -1.27216   1.94812
 1740.00   -1.27452   1.93508
 1741.00   -1.27681   1.92211
 1742.00   -1.27903   1.90920
 1743.00   -1.28118   1.89636
