   W          E2-(pi+_n)
 (MeV)       Re        Im
 1080.00    0.61455   0.00000
 1081.00    0.69839   0.00000
 1082.00    0.78054   0.00000
 1083.00    0.86105   0.00000
 1084.00    0.93996   0.00000
 1085.00    1.01729   0.00000
 1086.00    1.09310   0.00000
 1087.00    1.16742   0.00000
 1088.00    1.24027   0.00000
 1089.00    1.31170   0.00000
 1090.00    1.38173   0.00000
 1091.00    1.45040   0.00000
 1092.00    1.51775   0.00000
 1093.00    1.58379   0.00000
 1094.00    1.64856   0.00000
 1095.00    1.71208   0.00000
 1096.00    1.77439   0.00000
 1097.00    1.83551   0.00000
 1098.00    1.89547   0.00000
 1099.00    1.95429   0.00000
 1100.00    2.01200   0.00000
 1101.00    2.06862   0.00000
 1102.00    2.12417   0.00000
 1103.00    2.17868   0.00000
 1104.00    2.23217   0.00000
 1105.00    2.28467   0.00000
 1106.00    2.33618   0.00000
 1107.00    2.38674   0.00000
 1108.00    2.43636   0.00000
 1109.00    2.48506   0.00000
 1110.00    2.53287   0.00000
 1111.00    2.57979   0.00000
 1112.00    2.62585   0.00000
 1113.00    2.67107   0.00000
 1114.00    2.71546   0.00000
 1115.00    2.75904   0.00000
 1116.00    2.80182   0.00000
 1117.00    2.84383   0.00000
 1118.00    2.88507   0.00000
 1119.00    2.92556   0.00000
 1120.00    2.96532   0.00000
 1121.00    3.00437   0.00000
 1122.00    3.04271   0.00000
 1123.00    3.08035   0.00000
 1124.00    3.11732   0.00000
 1125.00    3.15363   0.00000
 1126.00    3.18928   0.00000
 1127.00    3.22429   0.00000
 1128.00    3.25868   0.00000
 1129.00    3.29245   0.00000
 1130.00    3.32562   0.00000
 1131.00    3.35820   0.00000
 1132.00    3.39019   0.00000
 1133.00    3.42162   0.00000
 1134.00    3.45248   0.00000
 1135.00    3.48280   0.00000
 1136.00    3.51257   0.00000
 1137.00    3.54182   0.00000
 1138.00    3.57055   0.00000
 1139.00    3.59877   0.00000
 1140.00    3.62648   0.00000
 1141.00    3.65371   0.00000
 1142.00    3.68045   0.00000
 1143.00    3.70672   0.00000
 1144.00    3.73252   0.00000
 1145.00    3.75787   0.00000
 1146.00    3.78276   0.00000
 1147.00    3.80722   0.00000
 1148.00    3.83124   0.00000
 1149.00    3.85483   0.00000
 1150.00    3.87801   0.00000
 1151.00    3.90077   0.00000
 1152.00    3.92313   0.00000
 1153.00    3.94510   0.00000
 1154.00    3.96667   0.00000
 1155.00    3.98786   0.00000
 1156.00    4.00867   0.00000
 1157.00    4.02911   0.00000
 1158.00    4.04919   0.00000
 1159.00    4.06890   0.00000
 1160.00    4.08827   0.00000
 1161.00    4.10729   0.00000
 1162.00    4.12597   0.00000
 1163.00    4.14431   0.00000
 1164.00    4.16233   0.00000
 1165.00    4.18002   0.00000
 1166.00    4.19739   0.00000
 1167.00    4.21445   0.00000
 1168.00    4.23120   0.00000
 1169.00    4.24765   0.00000
 1170.00    4.26380   0.00000
 1171.00    4.27966   0.00000
 1172.00    4.29523   0.00000
 1173.00    4.31051   0.00000
 1174.00    4.32551   0.00000
 1175.00    4.34024   0.00000
 1176.00    4.35470   0.00000
 1177.00    4.36890   0.00000
 1178.00    4.38283   0.00000
 1179.00    4.39650   0.00000
 1180.00    4.40992   0.00000
 1181.00    4.42309   0.00000
 1182.00    4.43602   0.00000
 1183.00    4.44870   0.00000
 1184.00    4.46114   0.00000
 1185.00    4.47335   0.00000
 1186.00    4.48533   0.00000
 1187.00    4.49708   0.00000
 1188.00    4.50861   0.00000
 1189.00    4.51992   0.00000
 1190.00    4.53101   0.00000
 1191.00    4.54188   0.00000
 1192.00    4.55255   0.00000
 1193.00    4.56301   0.00000
 1194.00    4.57326   0.00000
 1195.00    4.58331   0.00000
 1196.00    4.59317   0.00000
 1197.00    4.60283   0.00000
 1198.00    4.61230   0.00000
 1199.00    4.62158   0.00000
 1200.00    4.63067   0.00000
 1201.00    4.63958   0.00000
 1202.00    4.64830   0.00000
 1203.00    4.65685   0.00000
 1204.00    4.66523   0.00000
 1205.00    4.67343   0.00000
 1206.00    4.68146   0.00000
 1207.00    4.68932   0.00000
 1208.00    4.69701   0.00000
 1209.00    4.70455   0.00000
 1210.00    4.71192   0.00000
 1211.00    4.71913   0.00000
 1212.00    4.72619   0.00000
 1213.00    4.73309   0.00000
 1214.00    4.73984   0.00000
 1215.00    4.74644   0.00000
 1216.00    4.75290   0.00000
 1217.00    4.75920   0.00000
 1218.00    4.76537   0.00000
 1219.00    4.77139   0.00000
 1220.00    4.77728   0.00000
 1221.00    4.78302   0.00000
 1222.00    4.78864   0.00000
 1223.00    4.79411   0.00000
 1224.00    4.79946   0.00000
 1225.00    4.80468   0.00000
 1226.00    4.80976   0.00000
 1227.00    4.81473   0.00000
 1228.00    4.81956   0.00000
 1229.00    4.82428   0.00000
 1230.00    4.82887   0.00000
 1231.00    4.83335   0.00000
 1232.00    4.83770   0.00000
 1233.00    4.84194   0.00000
 1234.00    4.84607   0.00000
 1235.00    4.85008   0.00000
 1236.00    4.85398   0.00000
 1237.00    4.85777   0.00000
 1238.00    4.86146   0.00000
 1239.00    4.86503   0.00000
 1240.00    4.86850   0.00000
 1241.00    4.87187   0.00000
 1242.00    4.87513   0.00000
 1243.00    4.87829   0.00000
 1244.00    4.88135   0.00000
 1245.00    4.88432   0.00000
 1246.00    4.88718   0.00000
 1247.00    4.88995   0.00000
 1248.00    4.89263   0.00000
 1249.00    4.89521   0.00000
 1250.00    4.89770   0.00000
 1251.00    4.90009   0.00000
 1252.00    4.90240   0.00000
 1253.00    4.90462   0.00000
 1254.00    4.90675   0.00000
 1255.00    4.90880   0.00000
 1256.00    4.91075   0.00000
 1257.00    4.91263   0.00000
 1258.00    4.91442   0.00000
 1259.00    4.91613   0.00000
 1260.00    4.91776   0.00000
 1261.00    4.91931   0.00000
 1262.00    4.92078   0.00000
 1263.00    4.92217   0.00000
 1264.00    4.92349   0.00000
 1265.00    4.92473   0.00000
 1266.00    4.92590   0.00000
 1267.00    4.92699   0.00000
 1268.00    4.92801   0.00000
 1269.00    4.92895   0.00000
 1270.00    4.92983   0.00000
 1271.00    4.93063   0.00000
 1272.00    4.93137   0.00000
 1273.00    4.93203   0.00000
 1274.00    4.93263   0.00000
 1275.00    4.93317   0.00000
 1276.00    4.93363   0.00000
 1277.00    4.93403   0.00000
 1278.00    4.93437   0.00000
 1279.00    4.93464   0.00000
 1280.00    4.93486   0.00000
 1281.00    4.93501   0.00000
 1282.00    4.93509   0.00000
 1283.00    4.93512   0.00000
 1284.00    4.93509   0.00000
 1285.00    4.93500   0.00000
 1286.00    4.93485   0.00000
 1287.00    4.93464   0.00000
 1288.00    4.93438   0.00000
 1289.00    4.93406   0.00000
 1290.00    4.93369   0.00000
 1291.00    4.93326   0.00000
 1292.00    4.93278   0.00000
 1293.00    4.93224   0.00000
 1294.00    4.93165   0.00000
 1295.00    4.93101   0.00000
 1296.00    4.93032   0.00000
 1297.00    4.92958   0.00000
 1298.00    4.92879   0.00000
 1299.00    4.92795   0.00000
 1300.00    4.92705   0.00000
 1301.00    4.92612   0.00000
 1302.00    4.92513   0.00000
 1303.00    4.92409   0.00000
 1304.00    4.92301   0.00000
 1305.00    4.92189   0.00000
 1306.00    4.92072   0.00000
 1307.00    4.91950   0.00000
 1308.00    4.91824   0.00000
 1309.00    4.91693   0.00000
 1310.00    4.91559   0.00000
 1311.00    4.91419   0.00000
 1312.00    4.91276   0.00000
 1313.00    4.91129   0.00000
 1314.00    4.90977   0.00000
 1315.00    4.90821   0.00000
 1316.00    4.90662   0.00000
 1317.00    4.90498   0.00000
 1318.00    4.90330   0.00000
 1319.00    4.90159   0.00000
 1320.00    4.89984   0.00000
 1321.00    4.89804   0.00000
 1322.00    4.89622   0.00000
 1323.00    4.89435   0.00000
 1324.00    4.89245   0.00000
 1325.00    4.89051   0.00000
 1326.00    4.88854   0.00000
 1327.00    4.88653   0.00000
 1328.00    4.88448   0.00000
 1329.00    4.88240   0.00000
 1330.00    4.88029   0.00000
 1331.00    4.87814   0.00000
 1332.00    4.87596   0.00000
 1333.00    4.87375   0.00000
 1334.00    4.87151   0.00000
 1335.00    4.86923   0.00000
 1336.00    4.86692   0.00000
 1337.00    4.86458   0.00000
 1338.00    4.86221   0.00000
 1339.00    4.85981   0.00000
 1340.00    4.85738   0.00000
 1341.00    4.85492   0.00000
 1342.00    4.85242   0.00000
 1343.00    4.84990   0.00000
 1344.00    4.84736   0.00000
 1345.00    4.84478   0.00000
 1346.00    4.84217   0.00000
 1347.00    4.83954   0.00000
 1348.00    4.83688   0.00000
 1349.00    4.83419   0.00000
 1350.00    4.83147   0.00000
 1351.00    4.82873   0.00000
 1352.00    4.82596   0.00000
 1353.00    4.82317   0.00000
 1354.00    4.82035   0.00000
 1355.00    4.81750   0.00000
 1356.00    4.81463   0.00000
 1357.00    4.81174   0.00000
 1358.00    4.80882   0.00000
 1359.00    4.80588   0.00000
 1360.00    4.80291   0.00000
 1361.00    4.79992   0.00000
 1362.00    4.79691   0.00000
 1363.00    4.79387   0.00000
 1364.00    4.79081   0.00000
 1365.00    4.78772   0.00000
 1366.00    4.78462   0.00000
 1367.00    4.78149   0.00000
 1368.00    4.77834   0.00000
 1369.00    4.77517   0.00000
 1370.00    4.77198   0.00000
 1371.00    4.76877   0.00000
 1372.00    4.76554   0.00000
 1373.00    4.76228   0.00000
 1374.00    4.75901   0.00000
 1375.00    4.75571   0.00000
 1376.00    4.75240   0.00000
 1377.00    4.74907   0.00000
 1378.00    4.74571   0.00000
 1379.00    4.74234   0.00000
 1380.00    4.73895   0.00000
 1381.00    4.73554   0.00000
 1382.00    4.73211   0.00000
 1383.00    4.72867   0.00000
 1384.00    4.72520   0.00000
 1385.00    4.72172   0.00000
 1386.00    4.71822   0.00000
 1387.00    4.71470   0.00000
 1388.00    4.71117   0.00000
 1389.00    4.70762   0.00000
 1390.00    4.70405   0.00000
 1391.00    4.70047   0.00000
 1392.00    4.69686   0.00000
 1393.00    4.69325   0.00000
 1394.00    4.68961   0.00000
 1395.00    4.68596   0.00000
 1396.00    4.68230   0.00000
 1397.00    4.67862   0.00000
 1398.00    4.67492   0.00000
 1399.00    4.67121   0.00000
 1400.00    4.66749   0.00000
 1401.00    4.66375   0.00000
 1402.00    4.65999   0.00000
 1403.00    4.65622   0.00000
 1404.00    4.65244   0.00000
 1405.00    4.64864   0.00000
 1406.00    4.64483   0.00000
 1407.00    4.64100   0.00000
 1408.00    4.63716   0.00000
 1409.00    4.63331   0.00000
 1410.00    4.62945   0.00000
 1411.00    4.62557   0.00000
 1412.00    4.62167   0.00000
 1413.00    4.61777   0.00000
 1414.00    4.61385   0.00000
 1415.00    4.60992   0.00000
 1416.00    4.60598   0.00000
 1417.00    4.60203   0.00000
 1418.00    4.59806   0.00000
 1419.00    4.59408   0.00000
 1420.00    4.59009   0.00000
 1421.00    4.58609   0.00000
 1422.00    4.58208   0.00000
 1423.00    4.57805   0.00000
 1424.00    4.57402   0.00000
 1425.00    4.56997   0.00000
 1426.00    4.56591   0.00000
 1427.00    4.56184   0.00000
 1428.00    4.55776   0.00000
 1429.00    4.55368   0.00000
 1430.00    4.54957   0.00000
 1431.00    4.54546   0.00000
 1432.00    4.54134   0.00000
 1433.00    4.53721   0.00000
 1434.00    4.53307   0.00000
 1435.00    4.52892   0.00000
 1436.00    4.52476   0.00000
 1437.00    4.52059   0.00000
 1438.00    4.51641   0.00000
 1439.00    4.51223   0.00000
 1440.00    4.50803   0.00000
 1441.00    4.50382   0.00000
 1442.00    4.49961   0.00000
 1443.00    4.49538   0.00000
 1444.00    4.49115   0.00000
 1445.00    4.48691   0.00000
 1446.00    4.48266   0.00000
 1447.00    4.47840   0.00000
 1448.00    4.47413   0.00000
 1449.00    4.46985   0.00000
 1450.00    4.46557   0.00000
 1451.00    4.46128   0.00000
 1452.00    4.45698   0.00000
 1453.00    4.45267   0.00000
 1454.00    4.44836   0.00000
 1455.00    4.44404   0.00000
 1456.00    4.43971   0.00000
 1457.00    4.43537   0.00000
 1458.00    4.43102   0.00000
 1459.00    4.42667   0.00000
 1460.00    4.42231   0.00000
 1461.00    4.41795   0.00000
 1462.00    4.41357   0.00000
 1463.00    4.40919   0.00000
 1464.00    4.40481   0.00000
 1465.00    4.40041   0.00000
 1466.00    4.39601   0.00000
 1467.00    4.39161   0.00000
 1468.00    4.38719   0.00000
 1469.00    4.38278   0.00000
 1470.00    4.37835   0.00000
 1471.00    4.37392   0.00000
 1472.00    4.36948   0.00000
 1473.00    4.36504   0.00000
 1474.00    4.36059   0.00000
 1475.00    4.35613   0.00000
 1476.00    4.35167   0.00000
 1477.00    4.34720   0.00000
 1478.00    4.34273   0.00000
 1479.00    4.33825   0.00000
 1480.00    4.33377   0.00000
 1481.00    4.32928   0.00000
 1482.00    4.32479   0.00000
 1483.00    4.32029   0.00000
 1484.00    4.31578   0.00000
 1485.00    4.31127   0.00000
 1486.00    4.30676   0.00000
 1487.00    4.30224   0.00000
 1488.00    4.29772   0.00000
 1489.00    4.29319   0.00000
 1490.00    4.28865   0.00000
 1491.00    4.28411   0.00000
 1492.00    4.27957   0.00000
 1493.00    4.27502   0.00000
 1494.00    4.27047   0.00000
 1495.00    4.26592   0.00000
 1496.00    4.26136   0.00000
 1497.00    4.25679   0.00000
 1498.00    4.25222   0.00000
 1499.00    4.24765   0.00000
 1500.00    4.24307   0.00000
 1501.00    4.23849   0.00000
 1502.00    4.23390   0.00000
 1503.00    4.22932   0.00000
 1504.00    4.22472   0.00000
 1505.00    4.22013   0.00000
 1506.00    4.21553   0.00000
 1507.00    4.21092   0.00000
 1508.00    4.20631   0.00000
 1509.00    4.20170   0.00000
 1510.00    4.19709   0.00000
 1511.00    4.19247   0.00000
 1512.00    4.18785   0.00000
 1513.00    4.18323   0.00000
 1514.00    4.17860   0.00000
 1515.00    4.17397   0.00000
 1516.00    4.16933   0.00000
 1517.00    4.16470   0.00000
 1518.00    4.16006   0.00000
 1519.00    4.15541   0.00000
 1520.00    4.15077   0.00000
 1521.00    4.14612   0.00000
 1522.00    4.14147   0.00000
 1523.00    4.13681   0.00000
 1524.00    4.13216   0.00000
 1525.00    4.12750   0.00000
 1526.00    4.12283   0.00000
 1527.00    4.11817   0.00000
 1528.00    4.11350   0.00000
 1529.00    4.10883   0.00000
 1530.00    4.10416   0.00000
 1531.00    4.09948   0.00000
 1532.00    4.09481   0.00000
 1533.00    4.09013   0.00000
 1534.00    4.08545   0.00000
 1535.00    4.08076   0.00000
 1536.00    4.07608   0.00000
 1537.00    4.07139   0.00000
 1538.00    4.06670   0.00000
 1539.00    4.06200   0.00000
 1540.00    4.05731   0.00000
 1541.00    4.05261   0.00000
 1542.00    4.04792   0.00000
 1543.00    4.04322   0.00000
 1544.00    4.03852   0.00000
 1545.00    4.03381   0.00000
 1546.00    4.02911   0.00000
 1547.00    4.02440   0.00000
 1548.00    4.01969   0.00000
 1549.00    4.01498   0.00000
 1550.00    4.01027   0.00000
 1551.00    4.00556   0.00000
 1552.00    4.00084   0.00000
 1553.00    3.99613   0.00000
 1554.00    3.99141   0.00000
 1555.00    3.98669   0.00000
 1556.00    3.98197   0.00000
 1557.00    3.97725   0.00000
 1558.00    3.97252   0.00000
 1559.00    3.96780   0.00000
 1560.00    3.96308   0.00000
 1561.00    3.95835   0.00000
 1562.00    3.95362   0.00000
 1563.00    3.94889   0.00000
 1564.00    3.94416   0.00000
 1565.00    3.93943   0.00000
 1566.00    3.93470   0.00000
 1567.00    3.92997   0.00000
 1568.00    3.92523   0.00000
 1569.00    3.92050   0.00000
 1570.00    3.91576   0.00000
 1571.00    3.91103   0.00000
 1572.00    3.90629   0.00000
 1573.00    3.90155   0.00000
 1574.00    3.89681   0.00000
 1575.00    3.89208   0.00000
 1576.00    3.88734   0.00000
 1577.00    3.88260   0.00000
 1578.00    3.87785   0.00000
 1579.00    3.87311   0.00000
 1580.00    3.86837   0.00000
 1581.00    3.86363   0.00000
 1582.00    3.85888   0.00000
 1583.00    3.85414   0.00000
 1584.00    3.84940   0.00000
 1585.00    3.84465   0.00000
 1586.00    3.83991   0.00000
 1587.00    3.83516   0.00000
 1588.00    3.83042   0.00000
 1589.00    3.82567   0.00000
 1590.00    3.82092   0.00000
 1591.00    3.81618   0.00000
 1592.00    3.81143   0.00000
 1593.00    3.80668   0.00000
 1594.00    3.80194   0.00000
 1595.00    3.79719   0.00000
 1596.00    3.79244   0.00000
 1597.00    3.78769   0.00000
 1598.00    3.78295   0.00000
 1599.00    3.77820   0.00000
 1600.00    3.77345   0.00000
 1601.00    3.76870   0.00000
 1602.00    3.76396   0.00000
 1603.00    3.75921   0.00000
 1604.00    3.75446   0.00000
 1605.00    3.74971   0.00000
 1606.00    3.74497   0.00000
 1607.00    3.74022   0.00000
 1608.00    3.73547   0.00000
 1609.00    3.73073   0.00000
 1610.00    3.72598   0.00000
 1611.00    3.72123   0.00000
 1612.00    3.71649   0.00000
 1613.00    3.71174   0.00000
 1614.00    3.70700   0.00000
 1615.00    3.70225   0.00000
 1616.00    3.69751   0.00000
 1617.00    3.69276   0.00000
 1618.00    3.68802   0.00000
 1619.00    3.68328   0.00000
 1620.00    3.67853   0.00000
 1621.00    3.67379   0.00000
 1622.00    3.66905   0.00000
 1623.00    3.66431   0.00000
 1624.00    3.65957   0.00000
 1625.00    3.65483   0.00000
 1626.00    3.65009   0.00000
 1627.00    3.64535   0.00000
 1628.00    3.64061   0.00000
 1629.00    3.63587   0.00000
 1630.00    3.63113   0.00000
 1631.00    3.62639   0.00000
 1632.00    3.62166   0.00000
 1633.00    3.61692   0.00000
 1634.00    3.61219   0.00000
 1635.00    3.60745   0.00000
 1636.00    3.60272   0.00000
 1637.00    3.59799   0.00000
 1638.00    3.59325   0.00000
 1639.00    3.58852   0.00000
 1640.00    3.58379   0.00000
 1641.00    3.57906   0.00000
 1642.00    3.57433   0.00000
 1643.00    3.56961   0.00000
 1644.00    3.56488   0.00000
 1645.00    3.56015   0.00000
 1646.00    3.55543   0.00000
 1647.00    3.55070   0.00000
 1648.00    3.54598   0.00000
 1649.00    3.54126   0.00000
 1650.00    3.53654   0.00000
 1651.00    3.53182   0.00000
 1652.00    3.52710   0.00000
 1653.00    3.52238   0.00000
 1654.00    3.51766   0.00000
 1655.00    3.51294   0.00000
 1656.00    3.50823   0.00000
 1657.00    3.50352   0.00000
 1658.00    3.49880   0.00000
 1659.00    3.49409   0.00000
 1660.00    3.48938   0.00000
 1661.00    3.48467   0.00000
 1662.00    3.47996   0.00000
 1663.00    3.47525   0.00000
 1664.00    3.47055   0.00000
 1665.00    3.46584   0.00000
 1666.00    3.46114   0.00000
 1667.00    3.45643   0.00000
 1668.00    3.45173   0.00000
 1669.00    3.44703   0.00000
 1670.00    3.44233   0.00000
 1671.00    3.43764   0.00000
 1672.00    3.43294   0.00000
 1673.00    3.42824   0.00000
 1674.00    3.42355   0.00000
 1675.00    3.41886   0.00000
 1676.00    3.41417   0.00000
 1677.00    3.40948   0.00000
 1678.00    3.40479   0.00000
 1679.00    3.40010   0.00000
 1680.00    3.39541   0.00000
 1681.00    3.39073   0.00000
 1682.00    3.38605   0.00000
 1683.00    3.38136   0.00000
 1684.00    3.37668   0.00000
 1685.00    3.37201   0.00000
 1686.00    3.36733   0.00000
 1687.00    3.36265   0.00000
 1688.00    3.35798   0.00000
 1689.00    3.35330   0.00000
 1690.00    3.34863   0.00000
 1691.00    3.34396   0.00000
 1692.00    3.33929   0.00000
 1693.00    3.33463   0.00000
 1694.00    3.32996   0.00000
 1695.00    3.32530   0.00000
 1696.00    3.32064   0.00000
 1697.00    3.31597   0.00000
 1698.00    3.31132   0.00000
 1699.00    3.30666   0.00000
 1700.00    3.30200   0.00000
 1701.00    3.29735   0.00000
 1702.00    3.29269   0.00000
 1703.00    3.28804   0.00000
 1704.00    3.28339   0.00000
 1705.00    3.27874   0.00000
 1706.00    3.27410   0.00000
 1707.00    3.26945   0.00000
 1708.00    3.26481   0.00000
 1709.00    3.26017   0.00000
 1710.00    3.25553   0.00000
 1711.00    3.25089   0.00000
 1712.00    3.24625   0.00000
 1713.00    3.24162   0.00000
 1714.00    3.23699   0.00000
 1715.00    3.23236   0.00000
 1716.00    3.22773   0.00000
 1717.00    3.22310   0.00000
 1718.00    3.21847   0.00000
 1719.00    3.21385   0.00000
 1720.00    3.20923   0.00000
 1721.00    3.20460   0.00000
 1722.00    3.19999   0.00000
 1723.00    3.19537   0.00000
 1724.00    3.19075   0.00000
 1725.00    3.18614   0.00000
 1726.00    3.18153   0.00000
 1727.00    3.17692   0.00000
 1728.00    3.17231   0.00000
 1729.00    3.16770   0.00000
 1730.00    3.16310   0.00000
 1731.00    3.15850   0.00000
 1732.00    3.15390   0.00000
 1733.00    3.14930   0.00000
 1734.00    3.14470   0.00000
 1735.00    3.14010   0.00000
 1736.00    3.13551   0.00000
 1737.00    3.13092   0.00000
 1738.00    3.12633   0.00000
 1739.00    3.12174   0.00000
 1740.00    3.11716   0.00000
 1741.00    3.11257   0.00000
 1742.00    3.10799   0.00000
 1743.00    3.10341   0.00000
