   W          M5+(pi+_n)
 (MeV)       Re        Im
 1080.00   -0.00002   0.00000
 1081.00   -0.00003   0.00000
 1082.00   -0.00004   0.00000
 1083.00   -0.00006   0.00000
 1084.00   -0.00007   0.00000
 1085.00   -0.00009   0.00000
 1086.00   -0.00011   0.00000
 1087.00   -0.00013   0.00000
 1088.00   -0.00016   0.00000
 1089.00   -0.00018   0.00000
 1090.00   -0.00021   0.00000
 1091.00   -0.00024   0.00000
 1092.00   -0.00027   0.00000
 1093.00   -0.00031   0.00000
 1094.00   -0.00034   0.00000
 1095.00   -0.00038   0.00000
 1096.00   -0.00042   0.00000
 1097.00   -0.00046   0.00000
 1098.00   -0.00051   0.00000
 1099.00   -0.00056   0.00000
 1100.00   -0.00061   0.00000
 1101.00   -0.00066   0.00000
 1102.00   -0.00071   0.00000
 1103.00   -0.00077   0.00000
 1104.00   -0.00082   0.00000
 1105.00   -0.00088   0.00000
 1106.00   -0.00095   0.00000
 1107.00   -0.00101   0.00000
 1108.00   -0.00107   0.00000
 1109.00   -0.00114   0.00000
 1110.00   -0.00121   0.00000
 1111.00   -0.00128   0.00000
 1112.00   -0.00136   0.00000
 1113.00   -0.00143   0.00000
 1114.00   -0.00151   0.00000
 1115.00   -0.00159   0.00000
 1116.00   -0.00167   0.00000
 1117.00   -0.00175   0.00000
 1118.00   -0.00183   0.00000
 1119.00   -0.00192   0.00000
 1120.00   -0.00200   0.00000
 1121.00   -0.00209   0.00000
 1122.00   -0.00218   0.00000
 1123.00   -0.00228   0.00000
 1124.00   -0.00237   0.00000
 1125.00   -0.00246   0.00000
 1126.00   -0.00256   0.00000
 1127.00   -0.00266   0.00000
 1128.00   -0.00276   0.00000
 1129.00   -0.00286   0.00000
 1130.00   -0.00296   0.00000
 1131.00   -0.00306   0.00000
 1132.00   -0.00317   0.00000
 1133.00   -0.00327   0.00000
 1134.00   -0.00338   0.00000
 1135.00   -0.00349   0.00000
 1136.00   -0.00360   0.00000
 1137.00   -0.00371   0.00000
 1138.00   -0.00382   0.00000
 1139.00   -0.00394   0.00000
 1140.00   -0.00405   0.00000
 1141.00   -0.00417   0.00000
 1142.00   -0.00428   0.00000
 1143.00   -0.00440   0.00000
 1144.00   -0.00452   0.00000
 1145.00   -0.00464   0.00000
 1146.00   -0.00476   0.00000
 1147.00   -0.00488   0.00000
 1148.00   -0.00500   0.00000
 1149.00   -0.00513   0.00000
 1150.00   -0.00525   0.00000
 1151.00   -0.00538   0.00000
 1152.00   -0.00550   0.00000
 1153.00   -0.00563   0.00000
 1154.00   -0.00576   0.00000
 1155.00   -0.00589   0.00000
 1156.00   -0.00602   0.00000
 1157.00   -0.00615   0.00000
 1158.00   -0.00628   0.00000
 1159.00   -0.00641   0.00000
 1160.00   -0.00654   0.00000
 1161.00   -0.00667   0.00000
 1162.00   -0.00681   0.00000
 1163.00   -0.00694   0.00000
 1164.00   -0.00708   0.00000
 1165.00   -0.00721   0.00000
 1166.00   -0.00735   0.00000
 1167.00   -0.00748   0.00000
 1168.00   -0.00762   0.00000
 1169.00   -0.00776   0.00000
 1170.00   -0.00790   0.00000
 1171.00   -0.00804   0.00000
 1172.00   -0.00817   0.00000
 1173.00   -0.00831   0.00000
 1174.00   -0.00845   0.00000
 1175.00   -0.00859   0.00000
 1176.00   -0.00874   0.00000
 1177.00   -0.00888   0.00000
 1178.00   -0.00902   0.00000
 1179.00   -0.00916   0.00000
 1180.00   -0.00930   0.00000
 1181.00   -0.00945   0.00000
 1182.00   -0.00959   0.00000
 1183.00   -0.00973   0.00000
 1184.00   -0.00988   0.00000
 1185.00   -0.01002   0.00000
 1186.00   -0.01016   0.00000
 1187.00   -0.01031   0.00000
 1188.00   -0.01045   0.00000
 1189.00   -0.01060   0.00000
 1190.00   -0.01074   0.00000
 1191.00   -0.01089   0.00000
 1192.00   -0.01103   0.00000
 1193.00   -0.01118   0.00000
 1194.00   -0.01133   0.00000
 1195.00   -0.01147   0.00000
 1196.00   -0.01162   0.00000
 1197.00   -0.01176   0.00000
 1198.00   -0.01191   0.00000
 1199.00   -0.01206   0.00000
 1200.00   -0.01220   0.00000
 1201.00   -0.01235   0.00000
 1202.00   -0.01250   0.00000
 1203.00   -0.01264   0.00000
 1204.00   -0.01279   0.00000
 1205.00   -0.01294   0.00000
 1206.00   -0.01309   0.00000
 1207.00   -0.01323   0.00000
 1208.00   -0.01338   0.00000
 1209.00   -0.01353   0.00000
 1210.00   -0.01368   0.00000
 1211.00   -0.01382   0.00000
 1212.00   -0.01397   0.00000
 1213.00   -0.01412   0.00000
 1214.00   -0.01427   0.00000
 1215.00   -0.01441   0.00000
 1216.00   -0.01456   0.00000
 1217.00   -0.01471   0.00000
 1218.00   -0.01485   0.00000
 1219.00   -0.01500   0.00000
 1220.00   -0.01515   0.00000
 1221.00   -0.01530   0.00000
 1222.00   -0.01544   0.00000
 1223.00   -0.01559   0.00000
 1224.00   -0.01574   0.00000
 1225.00   -0.01588   0.00000
 1226.00   -0.01603   0.00000
 1227.00   -0.01618   0.00000
 1228.00   -0.01632   0.00000
 1229.00   -0.01647   0.00000
 1230.00   -0.01662   0.00000
 1231.00   -0.01676   0.00000
 1232.00   -0.01691   0.00000
 1233.00   -0.01705   0.00000
 1234.00   -0.01720   0.00000
 1235.00   -0.01735   0.00000
 1236.00   -0.01749   0.00000
 1237.00   -0.01764   0.00000
 1238.00   -0.01778   0.00000
 1239.00   -0.01793   0.00000
 1240.00   -0.01807   0.00000
 1241.00   -0.01822   0.00000
 1242.00   -0.01836   0.00000
 1243.00   -0.01850   0.00000
 1244.00   -0.01865   0.00000
 1245.00   -0.01879   0.00000
 1246.00   -0.01894   0.00000
 1247.00   -0.01908   0.00000
 1248.00   -0.01922   0.00000
 1249.00   -0.01937   0.00000
 1250.00   -0.01951   0.00000
 1251.00   -0.01965   0.00000
 1252.00   -0.01979   0.00000
 1253.00   -0.01994   0.00000
 1254.00   -0.02008   0.00000
 1255.00   -0.02022   0.00000
 1256.00   -0.02036   0.00000
 1257.00   -0.02050   0.00000
 1258.00   -0.02064   0.00000
 1259.00   -0.02078   0.00000
 1260.00   -0.02093   0.00000
 1261.00   -0.02107   0.00000
 1262.00   -0.02121   0.00000
 1263.00   -0.02135   0.00000
 1264.00   -0.02148   0.00000
 1265.00   -0.02162   0.00000
 1266.00   -0.02176   0.00000
 1267.00   -0.02190   0.00000
 1268.00   -0.02204   0.00000
 1269.00   -0.02218   0.00000
 1270.00   -0.02232   0.00000
 1271.00   -0.02245   0.00000
 1272.00   -0.02259   0.00000
 1273.00   -0.02273   0.00000
 1274.00   -0.02287   0.00000
 1275.00   -0.02300   0.00000
 1276.00   -0.02314   0.00000
 1277.00   -0.02328   0.00000
 1278.00   -0.02341   0.00000
 1279.00   -0.02355   0.00000
 1280.00   -0.02368   0.00000
 1281.00   -0.02382   0.00000
 1282.00   -0.02395   0.00000
 1283.00   -0.02409   0.00000
 1284.00   -0.02422   0.00000
 1285.00   -0.02435   0.00000
 1286.00   -0.02449   0.00000
 1287.00   -0.02462   0.00000
 1288.00   -0.02475   0.00000
 1289.00   -0.02489   0.00000
 1290.00   -0.02502   0.00000
 1291.00   -0.02515   0.00000
 1292.00   -0.02528   0.00000
 1293.00   -0.02541   0.00000
 1294.00   -0.02554   0.00000
 1295.00   -0.02567   0.00000
 1296.00   -0.02580   0.00000
 1297.00   -0.02593   0.00000
 1298.00   -0.02606   0.00000
 1299.00   -0.02619   0.00000
 1300.00   -0.02632   0.00000
 1301.00   -0.02645   0.00000
 1302.00   -0.02658   0.00000
 1303.00   -0.02671   0.00000
 1304.00   -0.02684   0.00000
 1305.00   -0.02696   0.00000
 1306.00   -0.02709   0.00000
 1307.00   -0.02722   0.00000
 1308.00   -0.02735   0.00000
 1309.00   -0.02747   0.00000
 1310.00   -0.02760   0.00000
 1311.00   -0.02772   0.00000
 1312.00   -0.02785   0.00000
 1313.00   -0.02797   0.00000
 1314.00   -0.02810   0.00000
 1315.00   -0.02822   0.00000
 1316.00   -0.02835   0.00000
 1317.00   -0.02847   0.00000
 1318.00   -0.02859   0.00000
 1319.00   -0.02872   0.00000
 1320.00   -0.02884   0.00000
 1321.00   -0.02896   0.00000
 1322.00   -0.02908   0.00000
 1323.00   -0.02921   0.00000
 1324.00   -0.02933   0.00000
 1325.00   -0.02945   0.00000
 1326.00   -0.02957   0.00000
 1327.00   -0.02969   0.00000
 1328.00   -0.02981   0.00000
 1329.00   -0.02993   0.00000
 1330.00   -0.03005   0.00000
 1331.00   -0.03017   0.00000
 1332.00   -0.03029   0.00000
 1333.00   -0.03041   0.00000
 1334.00   -0.03053   0.00000
 1335.00   -0.03064   0.00000
 1336.00   -0.03076   0.00000
 1337.00   -0.03088   0.00000
 1338.00   -0.03100   0.00000
 1339.00   -0.03111   0.00000
 1340.00   -0.03123   0.00000
 1341.00   -0.03135   0.00000
 1342.00   -0.03146   0.00000
 1343.00   -0.03158   0.00000
 1344.00   -0.03169   0.00000
 1345.00   -0.03181   0.00000
 1346.00   -0.03192   0.00000
 1347.00   -0.03204   0.00000
 1348.00   -0.03215   0.00000
 1349.00   -0.03226   0.00000
 1350.00   -0.03238   0.00000
 1351.00   -0.03249   0.00000
 1352.00   -0.03260   0.00000
 1353.00   -0.03272   0.00000
 1354.00   -0.03283   0.00000
 1355.00   -0.03294   0.00000
 1356.00   -0.03305   0.00000
 1357.00   -0.03316   0.00000
 1358.00   -0.03327   0.00000
 1359.00   -0.03338   0.00000
 1360.00   -0.03349   0.00000
 1361.00   -0.03360   0.00000
 1362.00   -0.03371   0.00000
 1363.00   -0.03382   0.00000
 1364.00   -0.03393   0.00000
 1365.00   -0.03404   0.00000
 1366.00   -0.03415   0.00000
 1367.00   -0.03426   0.00000
 1368.00   -0.03436   0.00000
 1369.00   -0.03447   0.00000
 1370.00   -0.03458   0.00000
 1371.00   -0.03469   0.00000
 1372.00   -0.03479   0.00000
 1373.00   -0.03490   0.00000
 1374.00   -0.03500   0.00000
 1375.00   -0.03511   0.00000
 1376.00   -0.03522   0.00000
 1377.00   -0.03532   0.00000
 1378.00   -0.03543   0.00000
 1379.00   -0.03553   0.00000
 1380.00   -0.03563   0.00000
 1381.00   -0.03574   0.00000
 1382.00   -0.03584   0.00000
 1383.00   -0.03595   0.00000
 1384.00   -0.03605   0.00000
 1385.00   -0.03615   0.00000
 1386.00   -0.03625   0.00000
 1387.00   -0.03636   0.00000
 1388.00   -0.03646   0.00000
 1389.00   -0.03656   0.00000
 1390.00   -0.03666   0.00000
 1391.00   -0.03676   0.00000
 1392.00   -0.03686   0.00000
 1393.00   -0.03696   0.00000
 1394.00   -0.03706   0.00000
 1395.00   -0.03716   0.00000
 1396.00   -0.03726   0.00000
 1397.00   -0.03736   0.00000
 1398.00   -0.03746   0.00000
 1399.00   -0.03756   0.00000
 1400.00   -0.03766   0.00000
 1401.00   -0.03776   0.00000
 1402.00   -0.03785   0.00000
 1403.00   -0.03795   0.00000
 1404.00   -0.03805   0.00000
 1405.00   -0.03815   0.00000
 1406.00   -0.03824   0.00000
 1407.00   -0.03834   0.00000
 1408.00   -0.03844   0.00000
 1409.00   -0.03853   0.00000
 1410.00   -0.03863   0.00000
 1411.00   -0.03872   0.00000
 1412.00   -0.03882   0.00000
 1413.00   -0.03891   0.00000
 1414.00   -0.03901   0.00000
 1415.00   -0.03910   0.00000
 1416.00   -0.03920   0.00000
 1417.00   -0.03929   0.00000
 1418.00   -0.03939   0.00000
 1419.00   -0.03948   0.00000
 1420.00   -0.03957   0.00000
 1421.00   -0.03967   0.00000
 1422.00   -0.03976   0.00000
 1423.00   -0.03985   0.00000
 1424.00   -0.03994   0.00000
 1425.00   -0.04004   0.00000
 1426.00   -0.04013   0.00000
 1427.00   -0.04022   0.00000
 1428.00   -0.04031   0.00000
 1429.00   -0.04040   0.00000
 1430.00   -0.04049   0.00000
 1431.00   -0.04058   0.00000
 1432.00   -0.04067   0.00000
 1433.00   -0.04076   0.00000
 1434.00   -0.04085   0.00000
 1435.00   -0.04094   0.00000
 1436.00   -0.04103   0.00000
 1437.00   -0.04112   0.00000
 1438.00   -0.04121   0.00000
 1439.00   -0.04130   0.00000
 1440.00   -0.04138   0.00000
 1441.00   -0.04147   0.00000
 1442.00   -0.04156   0.00000
 1443.00   -0.04165   0.00000
 1444.00   -0.04174   0.00000
 1445.00   -0.04182   0.00000
 1446.00   -0.04191   0.00000
 1447.00   -0.04200   0.00000
 1448.00   -0.04208   0.00000
 1449.00   -0.04217   0.00000
 1450.00   -0.04225   0.00000
 1451.00   -0.04234   0.00000
 1452.00   -0.04243   0.00000
 1453.00   -0.04251   0.00000
 1454.00   -0.04260   0.00000
 1455.00   -0.04268   0.00000
 1456.00   -0.04277   0.00000
 1457.00   -0.04285   0.00000
 1458.00   -0.04293   0.00000
 1459.00   -0.04302   0.00000
 1460.00   -0.04310   0.00000
 1461.00   -0.04319   0.00000
 1462.00   -0.04327   0.00000
 1463.00   -0.04335   0.00000
 1464.00   -0.04344   0.00000
 1465.00   -0.04352   0.00000
 1466.00   -0.04360   0.00000
 1467.00   -0.04368   0.00000
 1468.00   -0.04377   0.00000
 1469.00   -0.04385   0.00000
 1470.00   -0.04393   0.00000
 1471.00   -0.04401   0.00000
 1472.00   -0.04409   0.00000
 1473.00   -0.04417   0.00000
 1474.00   -0.04425   0.00000
 1475.00   -0.04433   0.00000
 1476.00   -0.04441   0.00000
 1477.00   -0.04449   0.00000
 1478.00   -0.04457   0.00000
 1479.00   -0.04465   0.00000
 1480.00   -0.04473   0.00000
 1481.00   -0.04481   0.00000
 1482.00   -0.04489   0.00000
 1483.00   -0.04497   0.00000
 1484.00   -0.04505   0.00000
 1485.00   -0.04513   0.00000
 1486.00   -0.04521   0.00000
 1487.00   -0.04529   0.00000
 1488.00   -0.04536   0.00000
 1489.00   -0.04544   0.00000
 1490.00   -0.04552   0.00000
 1491.00   -0.04560   0.00000
 1492.00   -0.04568   0.00000
 1493.00   -0.04575   0.00000
 1494.00   -0.04583   0.00000
 1495.00   -0.04591   0.00000
 1496.00   -0.04598   0.00000
 1497.00   -0.04606   0.00000
 1498.00   -0.04614   0.00000
 1499.00   -0.04621   0.00000
 1500.00   -0.04629   0.00000
 1501.00   -0.04636   0.00000
 1502.00   -0.04644   0.00000
 1503.00   -0.04651   0.00000
 1504.00   -0.04659   0.00000
 1505.00   -0.04666   0.00000
 1506.00   -0.04674   0.00000
 1507.00   -0.04681   0.00000
 1508.00   -0.04689   0.00000
 1509.00   -0.04696   0.00000
 1510.00   -0.04704   0.00000
 1511.00   -0.04711   0.00000
 1512.00   -0.04719   0.00000
 1513.00   -0.04726   0.00000
 1514.00   -0.04733   0.00000
 1515.00   -0.04741   0.00000
 1516.00   -0.04748   0.00000
 1517.00   -0.04755   0.00000
 1518.00   -0.04763   0.00000
 1519.00   -0.04770   0.00000
 1520.00   -0.04777   0.00000
 1521.00   -0.04784   0.00000
 1522.00   -0.04792   0.00000
 1523.00   -0.04799   0.00000
 1524.00   -0.04806   0.00000
 1525.00   -0.04813   0.00000
 1526.00   -0.04820   0.00000
 1527.00   -0.04827   0.00000
 1528.00   -0.04835   0.00000
 1529.00   -0.04842   0.00000
 1530.00   -0.04849   0.00000
 1531.00   -0.04856   0.00000
 1532.00   -0.04863   0.00000
 1533.00   -0.04870   0.00000
 1534.00   -0.04877   0.00000
 1535.00   -0.04884   0.00000
 1536.00   -0.04891   0.00000
 1537.00   -0.04898   0.00000
 1538.00   -0.04905   0.00000
 1539.00   -0.04912   0.00000
 1540.00   -0.04919   0.00000
 1541.00   -0.04926   0.00000
 1542.00   -0.04933   0.00000
 1543.00   -0.04940   0.00000
 1544.00   -0.04947   0.00000
 1545.00   -0.04954   0.00000
 1546.00   -0.04961   0.00000
 1547.00   -0.04968   0.00000
 1548.00   -0.04974   0.00000
 1549.00   -0.04981   0.00000
 1550.00   -0.04988   0.00000
 1551.00   -0.04995   0.00000
 1552.00   -0.05002   0.00000
 1553.00   -0.05008   0.00000
 1554.00   -0.05015   0.00000
 1555.00   -0.05022   0.00000
 1556.00   -0.05029   0.00000
 1557.00   -0.05035   0.00000
 1558.00   -0.05042   0.00000
 1559.00   -0.05049   0.00000
 1560.00   -0.05056   0.00000
 1561.00   -0.05062   0.00000
 1562.00   -0.05069   0.00000
 1563.00   -0.05076   0.00000
 1564.00   -0.05082   0.00000
 1565.00   -0.05089   0.00000
 1566.00   -0.05096   0.00000
 1567.00   -0.05102   0.00000
 1568.00   -0.05109   0.00000
 1569.00   -0.05115   0.00000
 1570.00   -0.05122   0.00000
 1571.00   -0.05129   0.00000
 1572.00   -0.05135   0.00000
 1573.00   -0.05142   0.00000
 1574.00   -0.05148   0.00000
 1575.00   -0.05155   0.00000
 1576.00   -0.05161   0.00000
 1577.00   -0.05168   0.00000
 1578.00   -0.05174   0.00000
 1579.00   -0.05181   0.00000
 1580.00   -0.05187   0.00000
 1581.00   -0.05194   0.00000
 1582.00   -0.05200   0.00000
 1583.00   -0.05207   0.00000
 1584.00   -0.05213   0.00000
 1585.00   -0.05219   0.00000
 1586.00   -0.05226   0.00000
 1587.00   -0.05232   0.00000
 1588.00   -0.05239   0.00000
 1589.00   -0.05245   0.00000
 1590.00   -0.05251   0.00000
 1591.00   -0.05258   0.00000
 1592.00   -0.05264   0.00000
 1593.00   -0.05270   0.00000
 1594.00   -0.05277   0.00000
 1595.00   -0.05283   0.00000
 1596.00   -0.05289   0.00000
 1597.00   -0.05296   0.00000
 1598.00   -0.05302   0.00000
 1599.00   -0.05308   0.00000
 1600.00   -0.05315   0.00000
 1601.00   -0.05321   0.00000
 1602.00   -0.05327   0.00000
 1603.00   -0.05333   0.00000
 1604.00   -0.05340   0.00000
 1605.00   -0.05346   0.00000
 1606.00   -0.05352   0.00000
 1607.00   -0.05358   0.00000
 1608.00   -0.05364   0.00000
 1609.00   -0.05371   0.00000
 1610.00   -0.05377   0.00000
 1611.00   -0.05383   0.00000
 1612.00   -0.05389   0.00000
 1613.00   -0.05395   0.00000
 1614.00   -0.05401   0.00000
 1615.00   -0.05408   0.00000
 1616.00   -0.05414   0.00000
 1617.00   -0.05420   0.00000
 1618.00   -0.05426   0.00000
 1619.00   -0.05432   0.00000
 1620.00   -0.05438   0.00000
 1621.00   -0.05444   0.00000
 1622.00   -0.05450   0.00000
 1623.00   -0.05456   0.00000
 1624.00   -0.05463   0.00000
 1625.00   -0.05469   0.00000
 1626.00   -0.05475   0.00000
 1627.00   -0.05481   0.00000
 1628.00   -0.05487   0.00000
 1629.00   -0.05493   0.00000
 1630.00   -0.05499   0.00000
 1631.00   -0.05505   0.00000
 1632.00   -0.05511   0.00000
 1633.00   -0.05517   0.00000
 1634.00   -0.05523   0.00000
 1635.00   -0.05529   0.00000
 1636.00   -0.05535   0.00000
 1637.00   -0.05541   0.00000
 1638.00   -0.05547   0.00000
 1639.00   -0.05553   0.00000
 1640.00   -0.05559   0.00000
 1641.00   -0.05565   0.00000
 1642.00   -0.05571   0.00000
 1643.00   -0.05577   0.00000
 1644.00   -0.05583   0.00000
 1645.00   -0.05588   0.00000
 1646.00   -0.05594   0.00000
 1647.00   -0.05600   0.00000
 1648.00   -0.05606   0.00000
 1649.00   -0.05612   0.00000
 1650.00   -0.05618   0.00000
 1651.00   -0.05624   0.00000
 1652.00   -0.05630   0.00000
 1653.00   -0.05636   0.00000
 1654.00   -0.05642   0.00000
 1655.00   -0.05647   0.00000
 1656.00   -0.05653   0.00000
 1657.00   -0.05659   0.00000
 1658.00   -0.05665   0.00000
 1659.00   -0.05671   0.00000
 1660.00   -0.05677   0.00000
 1661.00   -0.05683   0.00000
 1662.00   -0.05688   0.00000
 1663.00   -0.05694   0.00000
 1664.00   -0.05700   0.00000
 1665.00   -0.05706   0.00000
 1666.00   -0.05712   0.00000
 1667.00   -0.05717   0.00000
 1668.00   -0.05723   0.00000
 1669.00   -0.05729   0.00000
 1670.00   -0.05735   0.00000
 1671.00   -0.05741   0.00000
 1672.00   -0.05746   0.00000
 1673.00   -0.05752   0.00000
 1674.00   -0.05758   0.00000
 1675.00   -0.05764   0.00000
 1676.00   -0.05769   0.00000
 1677.00   -0.05775   0.00000
 1678.00   -0.05781   0.00000
 1679.00   -0.05787   0.00000
 1680.00   -0.05793   0.00000
 1681.00   -0.05798   0.00000
 1682.00   -0.05804   0.00000
 1683.00   -0.05810   0.00000
 1684.00   -0.05815   0.00000
 1685.00   -0.05821   0.00000
 1686.00   -0.05827   0.00000
 1687.00   -0.05833   0.00000
 1688.00   -0.05838   0.00000
 1689.00   -0.05844   0.00000
 1690.00   -0.05850   0.00000
 1691.00   -0.05855   0.00000
 1692.00   -0.05861   0.00000
 1693.00   -0.05867   0.00000
 1694.00   -0.05873   0.00000
 1695.00   -0.05878   0.00000
 1696.00   -0.05884   0.00000
 1697.00   -0.05890   0.00000
 1698.00   -0.05895   0.00000
 1699.00   -0.05901   0.00000
 1700.00   -0.05907   0.00000
 1701.00   -0.05912   0.00000
 1702.00   -0.05918   0.00000
 1703.00   -0.05924   0.00000
 1704.00   -0.05929   0.00000
 1705.00   -0.05935   0.00000
 1706.00   -0.05941   0.00000
 1707.00   -0.05946   0.00000
 1708.00   -0.05952   0.00000
 1709.00   -0.05958   0.00000
 1710.00   -0.05963   0.00000
 1711.00   -0.05969   0.00000
 1712.00   -0.05974   0.00000
 1713.00   -0.05980   0.00000
 1714.00   -0.05986   0.00000
 1715.00   -0.05991   0.00000
 1716.00   -0.05997   0.00000
 1717.00   -0.06003   0.00000
 1718.00   -0.06008   0.00000
 1719.00   -0.06014   0.00000
 1720.00   -0.06019   0.00000
 1721.00   -0.06025   0.00000
 1722.00   -0.06031   0.00000
 1723.00   -0.06036   0.00000
 1724.00   -0.06042   0.00000
 1725.00   -0.06048   0.00000
 1726.00   -0.06053   0.00000
 1727.00   -0.06059   0.00000
 1728.00   -0.06064   0.00000
 1729.00   -0.06070   0.00000
 1730.00   -0.06076   0.00000
 1731.00   -0.06081   0.00000
 1732.00   -0.06087   0.00000
 1733.00   -0.06092   0.00000
 1734.00   -0.06098   0.00000
 1735.00   -0.06103   0.00000
 1736.00   -0.06109   0.00000
 1737.00   -0.06115   0.00000
 1738.00   -0.06120   0.00000
 1739.00   -0.06126   0.00000
 1740.00   -0.06131   0.00000
 1741.00   -0.06137   0.00000
 1742.00   -0.06143   0.00000
 1743.00   -0.06148   0.00000
