   W          M2-(pi0_p)
 (MeV)       Re        Im
 1073.30    0.00002   0.00000
 1073.40    0.00004   0.00000
 1073.50    0.00007   0.00000
 1073.60    0.00010   0.00000
 1073.70    0.00012   0.00000
 1073.80    0.00015   0.00000
 1073.90    0.00018   0.00000
 1074.00    0.00020   0.00000
 1074.10    0.00023   0.00000
 1074.20    0.00026   0.00000
 1074.30    0.00028   0.00000
 1074.40    0.00031   0.00000
 1074.50    0.00034   0.00000
 1074.60    0.00036   0.00000
 1074.70    0.00039   0.00000
 1074.80    0.00042   0.00000
 1074.90    0.00045   0.00000
 1075.00    0.00047   0.00000
 1075.10    0.00050   0.00000
 1075.20    0.00053   0.00000
 1075.30    0.00055   0.00000
 1075.40    0.00058   0.00000
 1075.50    0.00061   0.00000
 1075.60    0.00063   0.00000
 1075.70    0.00066   0.00000
 1075.80    0.00069   0.00000
 1075.90    0.00071   0.00000
 1076.00    0.00074   0.00000
 1076.10    0.00077   0.00000
 1076.20    0.00079   0.00000
 1076.30    0.00082   0.00000
 1076.40    0.00085   0.00000
 1076.50    0.00088   0.00000
 1076.60    0.00090   0.00000
 1076.70    0.00093   0.00000
 1076.80    0.00096   0.00000
 1076.90    0.00098   0.00000
 1077.00    0.00101   0.00000
 1077.10    0.00104   0.00000
 1077.20    0.00107   0.00000
 1077.30    0.00109   0.00000
 1077.40    0.00112   0.00000
 1077.50    0.00115   0.00000
 1077.60    0.00117   0.00000
 1077.70    0.00120   0.00000
 1077.80    0.00123   0.00000
 1077.90    0.00125   0.00000
 1078.00    0.00128   0.00000
 1078.10    0.00131   0.00000
 1078.20    0.00134   0.00000
 1078.30    0.00136   0.00000
 1078.40    0.00139   0.00000
 1078.50    0.00142   0.00000
 1078.60    0.00145   0.00000
 1078.70    0.00147   0.00000
 1078.80    0.00150   0.00000
 1078.90    0.00153   0.00000
 1079.00    0.00155   0.00000
 1079.10    0.00158   0.00000
 1079.20    0.00161   0.00000
 1079.30    0.00164   0.00000
 1079.40    0.00166   0.00000
 1079.50    0.00169   0.00000
 1079.60    0.00172   0.00000
 1079.70    0.00174   0.00000
 1079.80    0.00177   0.00000
 1079.90    0.00180   0.00000
 1080.00    0.00183   0.00000
 1080.10    0.00185   0.00000
 1080.20    0.00188   0.00000
 1080.30    0.00191   0.00000
 1080.40    0.00194   0.00000
 1080.50    0.00196   0.00000
 1080.60    0.00199   0.00000
 1080.70    0.00202   0.00000
 1080.80    0.00205   0.00000
 1080.90    0.00207   0.00000
 1081.00    0.00210   0.00000
 1081.10    0.00213   0.00000
 1081.20    0.00216   0.00000
 1081.30    0.00218   0.00000
 1081.40    0.00221   0.00000
 1081.50    0.00224   0.00000
 1081.60    0.00227   0.00000
 1081.70    0.00229   0.00000
 1081.80    0.00232   0.00000
 1081.90    0.00235   0.00000
 1082.00    0.00238   0.00000
 1082.10    0.00240   0.00000
 1082.20    0.00243   0.00000
 1082.30    0.00246   0.00000
 1082.40    0.00249   0.00000
 1082.50    0.00251   0.00000
 1082.60    0.00254   0.00000
 1082.70    0.00257   0.00000
 1082.80    0.00260   0.00000
 1082.90    0.00262   0.00000
 1083.00    0.00265   0.00000
 1083.10    0.00268   0.00000
 1083.20    0.00271   0.00000
 1083.30    0.00273   0.00000
 1083.40    0.00276   0.00000
 1083.50    0.00279   0.00000
 1083.60    0.00282   0.00000
 1083.70    0.00285   0.00000
 1083.80    0.00287   0.00000
 1083.90    0.00290   0.00000
 1084.00    0.00293   0.00000
 1084.10    0.00296   0.00000
 1084.20    0.00298   0.00000
 1084.30    0.00301   0.00000
 1084.40    0.00304   0.00000
 1084.50    0.00307   0.00000
 1084.60    0.00310   0.00000
 1084.70    0.00312   0.00000
 1084.80    0.00315   0.00000
 1084.90    0.00318   0.00000
 1085.00    0.00321   0.00000
 1085.10    0.00323   0.00000
 1085.20    0.00326   0.00000
 1085.30    0.00329   0.00000
 1085.40    0.00332   0.00000
 1085.50    0.00335   0.00000
 1085.60    0.00337   0.00000
 1085.70    0.00340   0.00000
 1085.80    0.00343   0.00000
 1085.90    0.00346   0.00000
 1086.00    0.00349   0.00000
 1086.10    0.00351   0.00000
 1086.20    0.00354   0.00000
 1086.30    0.00357   0.00000
 1086.40    0.00360   0.00000
 1086.50    0.00363   0.00000
 1086.60    0.00365   0.00000
 1086.70    0.00368   0.00000
 1086.80    0.00371   0.00000
 1086.90    0.00374   0.00000
 1087.00    0.00377   0.00000
 1087.10    0.00379   0.00000
 1087.20    0.00382   0.00000
 1087.30    0.00385   0.00000
 1087.40    0.00388   0.00000
 1087.50    0.00391   0.00000
 1087.60    0.00393   0.00000
 1087.70    0.00396   0.00000
 1087.80    0.00399   0.00000
 1087.90    0.00402   0.00000
 1088.00    0.00405   0.00000
 1088.10    0.00407   0.00000
 1088.20    0.00410   0.00000
 1088.30    0.00413   0.00000
 1088.40    0.00416   0.00000
 1088.50    0.00419   0.00000
 1088.60    0.00422   0.00000
 1088.70    0.00424   0.00000
 1088.80    0.00427   0.00000
 1088.90    0.00430   0.00000
 1089.00    0.00433   0.00000
 1089.10    0.00436   0.00000
 1089.20    0.00438   0.00000
 1089.30    0.00441   0.00000
 1089.40    0.00444   0.00000
 1089.50    0.00447   0.00000
 1089.60    0.00450   0.00000
 1089.70    0.00453   0.00000
 1089.80    0.00455   0.00000
 1089.90    0.00458   0.00000
 1090.00    0.00461   0.00000
 1090.10    0.00464   0.00000
 1090.20    0.00467   0.00000
 1090.30    0.00470   0.00000
 1090.40    0.00472   0.00000
 1090.50    0.00475   0.00000
 1090.60    0.00478   0.00000
 1090.70    0.00481   0.00000
 1090.80    0.00484   0.00000
 1090.90    0.00487   0.00000
 1091.00    0.00489   0.00000
 1091.10    0.00492   0.00000
 1091.20    0.00495   0.00000
 1091.30    0.00498   0.00000
 1091.40    0.00501   0.00000
 1091.50    0.00504   0.00000
 1091.60    0.00506   0.00000
 1091.70    0.00509   0.00000
 1091.80    0.00512   0.00000
 1091.90    0.00515   0.00000
 1092.00    0.00518   0.00000
 1092.10    0.00521   0.00000
 1092.20    0.00524   0.00000
 1092.30    0.00526   0.00000
 1092.40    0.00529   0.00000
 1092.50    0.00532   0.00000
 1092.60    0.00535   0.00000
 1092.70    0.00538   0.00000
 1092.80    0.00541   0.00000
 1092.90    0.00544   0.00000
 1093.00    0.00546   0.00000
 1093.10    0.00549   0.00000
 1093.20    0.00552   0.00000
 1093.30    0.00555   0.00000
 1093.40    0.00558   0.00000
 1093.50    0.00561   0.00000
 1093.60    0.00564   0.00000
 1093.70    0.00566   0.00000
 1093.80    0.00569   0.00000
 1093.90    0.00572   0.00000
 1094.00    0.00575   0.00000
 1094.10    0.00578   0.00000
 1094.20    0.00581   0.00000
 1094.30    0.00584   0.00000
 1094.40    0.00586   0.00000
 1094.50    0.00589   0.00000
 1094.60    0.00592   0.00000
 1094.70    0.00595   0.00000
 1094.80    0.00598   0.00000
 1094.90    0.00601   0.00000
 1095.00    0.00604   0.00000
 1095.10    0.00607   0.00000
 1095.20    0.00609   0.00000
 1095.30    0.00612   0.00000
 1095.40    0.00615   0.00000
 1095.50    0.00618   0.00000
 1095.60    0.00621   0.00000
 1095.70    0.00624   0.00000
 1095.80    0.00627   0.00000
 1095.90    0.00630   0.00000
 1096.00    0.00633   0.00000
 1096.10    0.00635   0.00000
 1096.20    0.00638   0.00000
 1096.30    0.00641   0.00000
 1096.40    0.00644   0.00000
 1096.50    0.00647   0.00000
 1096.60    0.00650   0.00000
 1096.70    0.00653   0.00000
 1096.80    0.00656   0.00000
 1096.90    0.00659   0.00000
 1097.00    0.00661   0.00000
 1097.10    0.00664   0.00000
 1097.20    0.00667   0.00000
 1097.30    0.00670   0.00000
 1097.40    0.00673   0.00000
 1097.50    0.00676   0.00000
 1097.60    0.00679   0.00000
 1097.70    0.00682   0.00000
 1097.80    0.00685   0.00000
 1097.90    0.00687   0.00000
 1098.00    0.00690   0.00000
 1098.10    0.00693   0.00000
 1098.20    0.00696   0.00000
 1098.30    0.00699   0.00000
 1098.40    0.00702   0.00000
 1098.50    0.00705   0.00000
 1098.60    0.00708   0.00000
 1098.70    0.00711   0.00000
 1098.80    0.00714   0.00000
 1098.90    0.00717   0.00000
 1099.00    0.00719   0.00000
 1099.10    0.00722   0.00000
 1099.20    0.00725   0.00000
 1099.30    0.00728   0.00000
 1099.40    0.00731   0.00000
 1099.50    0.00734   0.00000
 1099.60    0.00737   0.00000
 1099.70    0.00740   0.00000
 1099.80    0.00743   0.00000
 1099.90    0.00746   0.00000
 1100.00    0.00749   0.00000
 1100.10    0.00752   0.00000
 1100.20    0.00754   0.00000
 1100.30    0.00757   0.00000
 1100.40    0.00760   0.00000
 1100.50    0.00763   0.00000
 1100.60    0.00766   0.00000
 1100.70    0.00769   0.00000
 1100.80    0.00772   0.00000
 1100.90    0.00775   0.00000
 1101.00    0.00778   0.00000
 1101.10    0.00781   0.00000
 1101.20    0.00784   0.00000
 1101.30    0.00787   0.00000
 1101.40    0.00790   0.00000
 1101.50    0.00793   0.00000
 1101.60    0.00795   0.00000
 1101.70    0.00798   0.00000
 1101.80    0.00801   0.00000
 1101.90    0.00804   0.00000
 1102.00    0.00807   0.00000
 1102.10    0.00810   0.00000
 1102.20    0.00813   0.00000
 1102.30    0.00816   0.00000
 1102.40    0.00819   0.00000
 1102.50    0.00822   0.00000
 1102.60    0.00825   0.00000
 1102.70    0.00828   0.00000
 1102.80    0.00831   0.00000
 1102.90    0.00834   0.00000
 1103.00    0.00837   0.00000
 1103.10    0.00840   0.00000
 1103.20    0.00842   0.00000
 1103.30    0.00845   0.00000
 1103.40    0.00848   0.00000
 1103.50    0.00851   0.00000
 1103.60    0.00854   0.00000
 1103.70    0.00857   0.00000
 1103.80    0.00860   0.00000
 1103.90    0.00863   0.00000
 1104.00    0.00866   0.00000
 1104.10    0.00869   0.00000
 1104.20    0.00872   0.00000
 1104.30    0.00875   0.00000
 1104.40    0.00878   0.00000
 1104.50    0.00881   0.00000
 1104.60    0.00884   0.00000
 1104.70    0.00887   0.00000
 1104.80    0.00890   0.00000
 1104.90    0.00893   0.00000
 1105.00    0.00896   0.00000
 1105.10    0.00899   0.00000
 1105.20    0.00902   0.00000
 1105.30    0.00905   0.00000
 1105.40    0.00908   0.00000
 1105.50    0.00910   0.00000
 1105.60    0.00913   0.00000
 1105.70    0.00916   0.00000
 1105.80    0.00919   0.00000
 1105.90    0.00922   0.00000
 1106.00    0.00925   0.00000
 1106.10    0.00928   0.00000
 1106.20    0.00931   0.00000
 1106.30    0.00934   0.00000
 1106.40    0.00937   0.00000
 1106.50    0.00940   0.00000
 1106.60    0.00943   0.00000
 1106.70    0.00946   0.00000
 1106.80    0.00949   0.00000
 1106.90    0.00952   0.00000
 1107.00    0.00955   0.00000
 1107.10    0.00958   0.00000
 1107.20    0.00961   0.00000
 1107.30    0.00964   0.00000
 1107.40    0.00967   0.00000
 1107.50    0.00970   0.00000
 1107.60    0.00973   0.00000
 1107.70    0.00976   0.00000
 1107.80    0.00979   0.00000
 1107.90    0.00982   0.00000
 1108.00    0.00985   0.00000
 1108.10    0.00988   0.00000
 1108.20    0.00991   0.00000
 1108.30    0.00994   0.00000
 1108.40    0.00997   0.00000
 1108.50    0.01000   0.00000
 1108.60    0.01003   0.00000
 1108.70    0.01006   0.00000
 1108.80    0.01009   0.00000
 1108.90    0.01012   0.00000
 1109.00    0.01015   0.00000
 1109.10    0.01018   0.00000
 1109.20    0.01021   0.00000
 1109.30    0.01024   0.00000
 1109.40    0.01027   0.00000
 1109.50    0.01030   0.00000
 1109.60    0.01033   0.00000
 1109.70    0.01036   0.00000
 1109.80    0.01039   0.00000
 1109.90    0.01042   0.00000
 1110.00    0.01045   0.00000
 1110.10    0.01048   0.00000
 1110.20    0.01051   0.00000
 1110.30    0.01054   0.00000
 1110.40    0.01057   0.00000
 1110.50    0.01060   0.00000
 1110.60    0.01063   0.00000
 1110.70    0.01066   0.00000
 1110.80    0.01069   0.00000
 1110.90    0.01072   0.00000
 1111.00    0.01075   0.00000
 1111.10    0.01078   0.00000
 1111.20    0.01081   0.00000
 1111.30    0.01084   0.00000
 1111.40    0.01087   0.00000
 1111.50    0.01090   0.00000
 1111.60    0.01093   0.00000
 1111.70    0.01096   0.00000
 1111.80    0.01099   0.00000
 1111.90    0.01102   0.00000
 1112.00    0.01105   0.00000
 1112.10    0.01108   0.00000
 1112.20    0.01111   0.00000
 1112.30    0.01114   0.00000
 1112.40    0.01117   0.00000
 1112.50    0.01120   0.00000
 1112.60    0.01123   0.00000
 1112.70    0.01126   0.00000
 1112.80    0.01129   0.00000
 1112.90    0.01132   0.00000
 1113.00    0.01135   0.00000
 1113.10    0.01138   0.00000
 1113.20    0.01141   0.00000
 1113.30    0.01144   0.00000
 1113.40    0.01147   0.00000
 1113.50    0.01150   0.00000
 1113.60    0.01153   0.00000
 1113.70    0.01156   0.00000
 1113.80    0.01159   0.00000
 1113.90    0.01163   0.00000
 1114.00    0.01166   0.00000
 1114.10    0.01169   0.00000
 1114.20    0.01172   0.00000
 1114.30    0.01175   0.00000
 1114.40    0.01178   0.00000
 1114.50    0.01181   0.00000
 1114.60    0.01184   0.00000
 1114.70    0.01187   0.00000
 1114.80    0.01190   0.00000
 1114.90    0.01193   0.00000
 1115.00    0.01196   0.00000
 1115.10    0.01199   0.00000
 1115.20    0.01202   0.00000
 1115.30    0.01205   0.00000
 1115.40    0.01208   0.00000
 1115.50    0.01211   0.00000
 1115.60    0.01214   0.00000
 1115.70    0.01217   0.00000
 1115.80    0.01220   0.00000
 1115.90    0.01223   0.00000
 1116.00    0.01226   0.00000
 1116.10    0.01229   0.00000
 1116.20    0.01233   0.00000
 1116.30    0.01236   0.00000
 1116.40    0.01239   0.00000
 1116.50    0.01242   0.00000
 1116.60    0.01245   0.00000
 1116.70    0.01248   0.00000
 1116.80    0.01251   0.00000
 1116.90    0.01254   0.00000
 1117.00    0.01257   0.00000
 1117.10    0.01260   0.00000
 1117.20    0.01263   0.00000
 1117.30    0.01266   0.00000
 1117.40    0.01269   0.00000
 1117.50    0.01272   0.00000
 1117.60    0.01275   0.00000
 1117.70    0.01278   0.00000
 1117.80    0.01281   0.00000
 1117.90    0.01285   0.00000
 1118.00    0.01288   0.00000
 1118.10    0.01291   0.00000
 1118.20    0.01294   0.00000
 1118.30    0.01297   0.00000
 1118.40    0.01300   0.00000
 1118.50    0.01303   0.00000
 1118.60    0.01306   0.00000
 1118.70    0.01309   0.00000
 1118.80    0.01312   0.00000
 1118.90    0.01315   0.00000
 1119.00    0.01318   0.00000
 1119.10    0.01321   0.00000
 1119.20    0.01324   0.00000
 1119.30    0.01327   0.00000
 1119.40    0.01331   0.00000
 1119.50    0.01334   0.00000
 1119.60    0.01337   0.00000
 1119.70    0.01340   0.00000
 1119.80    0.01343   0.00000
 1119.90    0.01346   0.00000
 1120.00    0.01349   0.00000
 1120.10    0.01352   0.00000
 1120.20    0.01355   0.00000
 1120.30    0.01358   0.00000
 1120.40    0.01361   0.00000
 1120.50    0.01364   0.00000
 1120.60    0.01368   0.00000
 1120.70    0.01371   0.00000
 1120.80    0.01374   0.00000
 1120.90    0.01377   0.00000
 1121.00    0.01380   0.00000
 1121.10    0.01383   0.00000
 1121.20    0.01386   0.00000
 1121.30    0.01389   0.00000
 1121.40    0.01392   0.00000
 1121.50    0.01395   0.00000
 1121.60    0.01398   0.00000
 1121.70    0.01402   0.00000
 1121.80    0.01405   0.00000
 1121.90    0.01408   0.00000
 1122.00    0.01411   0.00000
 1122.10    0.01414   0.00000
 1122.20    0.01417   0.00000
 1122.30    0.01420   0.00000
 1122.40    0.01423   0.00000
 1122.50    0.01426   0.00000
 1122.60    0.01429   0.00000
 1122.70    0.01433   0.00000
 1122.80    0.01436   0.00000
 1122.90    0.01439   0.00000
 1123.00    0.01442   0.00000
 1123.10    0.01445   0.00000
 1123.20    0.01448   0.00000
 1123.30    0.01451   0.00000
 1123.40    0.01454   0.00000
 1123.50    0.01457   0.00000
 1123.60    0.01460   0.00000
 1123.70    0.01464   0.00000
 1123.80    0.01467   0.00000
 1123.90    0.01470   0.00000
 1124.00    0.01473   0.00000
 1124.10    0.01476   0.00000
 1124.20    0.01479   0.00000
 1124.30    0.01482   0.00000
 1124.40    0.01485   0.00000
 1124.50    0.01488   0.00000
 1124.60    0.01492   0.00000
 1124.70    0.01495   0.00000
 1124.80    0.01498   0.00000
 1124.90    0.01501   0.00000
 1125.00    0.01504   0.00000
 1125.10    0.01507   0.00000
 1125.20    0.01510   0.00000
 1125.30    0.01513   0.00000
 1125.40    0.01516   0.00000
 1125.50    0.01520   0.00000
 1125.60    0.01523   0.00000
 1125.70    0.01526   0.00000
 1125.80    0.01529   0.00000
 1125.90    0.01532   0.00000
 1126.00    0.01535   0.00000
 1126.10    0.01538   0.00000
 1126.20    0.01541   0.00000
 1126.30    0.01545   0.00000
 1126.40    0.01548   0.00000
 1126.50    0.01551   0.00000
 1126.60    0.01554   0.00000
 1126.70    0.01557   0.00000
 1126.80    0.01560   0.00000
 1126.90    0.01563   0.00000
 1127.00    0.01567   0.00000
 1127.10    0.01570   0.00000
 1127.20    0.01573   0.00000
 1127.30    0.01576   0.00000
 1127.40    0.01579   0.00000
 1127.50    0.01582   0.00000
 1127.60    0.01585   0.00000
 1127.70    0.01588   0.00000
 1127.80    0.01592   0.00000
 1127.90    0.01595   0.00000
 1128.00    0.01598   0.00000
 1128.10    0.01601   0.00000
 1128.20    0.01604   0.00000
 1128.30    0.01607   0.00000
 1128.40    0.01610   0.00000
 1128.50    0.01614   0.00000
 1128.60    0.01617   0.00000
 1128.70    0.01620   0.00000
 1128.80    0.01623   0.00000
 1128.90    0.01626   0.00000
 1129.00    0.01629   0.00000
 1129.10    0.01632   0.00000
 1129.20    0.01636   0.00000
 1129.30    0.01639   0.00000
 1129.40    0.01642   0.00000
 1129.50    0.01645   0.00000
 1129.60    0.01648   0.00000
 1129.70    0.01651   0.00000
 1129.80    0.01654   0.00000
 1129.90    0.01658   0.00000
 1130.00    0.01661   0.00000
 1130.10    0.01664   0.00000
 1130.20    0.01667   0.00000
 1130.30    0.01670   0.00000
 1130.40    0.01673   0.00000
 1130.50    0.01677   0.00000
 1130.60    0.01680   0.00000
 1130.70    0.01683   0.00000
 1130.80    0.01686   0.00000
 1130.90    0.01689   0.00000
 1131.00    0.01692   0.00000
 1131.10    0.01696   0.00000
 1131.20    0.01699   0.00000
 1131.30    0.01702   0.00000
 1131.40    0.01705   0.00000
 1131.50    0.01708   0.00000
 1131.60    0.01711   0.00000
 1131.70    0.01715   0.00000
 1131.80    0.01718   0.00000
 1131.90    0.01721   0.00000
 1132.00    0.01724   0.00000
 1132.10    0.01727   0.00000
 1132.20    0.01730   0.00000
 1132.30    0.01734   0.00000
 1132.40    0.01737   0.00000
 1132.50    0.01740   0.00000
 1132.60    0.01743   0.00000
 1132.70    0.01746   0.00000
 1132.80    0.01749   0.00000
 1132.90    0.01753   0.00000
 1133.00    0.01756   0.00000
 1133.10    0.01759   0.00000
 1133.20    0.01762   0.00000
 1133.30    0.01765   0.00000
 1133.40    0.01768   0.00000
 1133.50    0.01772   0.00000
 1133.60    0.01775   0.00000
 1133.70    0.01778   0.00000
 1133.80    0.01781   0.00000
 1133.90    0.01784   0.00000
 1134.00    0.01787   0.00000
 1134.10    0.01791   0.00000
 1134.20    0.01794   0.00000
 1134.30    0.01797   0.00000
 1134.40    0.01800   0.00000
 1134.50    0.01803   0.00000
 1134.60    0.01807   0.00000
 1134.70    0.01810   0.00000
 1134.80    0.01813   0.00000
 1134.90    0.01816   0.00000
 1135.00    0.01819   0.00000
 1135.10    0.01823   0.00000
 1135.20    0.01826   0.00000
 1135.30    0.01829   0.00000
 1135.40    0.01832   0.00000
 1135.50    0.01835   0.00000
 1135.60    0.01838   0.00000
 1135.70    0.01842   0.00000
 1135.80    0.01845   0.00000
 1135.90    0.01848   0.00000
 1136.00    0.01851   0.00000
 1136.10    0.01854   0.00000
 1136.20    0.01858   0.00000
 1136.30    0.01861   0.00000
 1136.40    0.01864   0.00000
 1136.50    0.01867   0.00000
 1136.60    0.01870   0.00000
 1136.70    0.01874   0.00000
 1136.80    0.01877   0.00000
 1136.90    0.01880   0.00000
 1137.00    0.01883   0.00000
 1137.10    0.01886   0.00000
 1137.20    0.01890   0.00000
 1137.30    0.01893   0.00000
 1137.40    0.01896   0.00000
 1137.50    0.01899   0.00000
 1137.60    0.01902   0.00000
 1137.70    0.01906   0.00000
 1137.80    0.01909   0.00000
 1137.90    0.01912   0.00000
 1138.00    0.01915   0.00000
 1138.10    0.01918   0.00000
 1138.20    0.01922   0.00000
 1138.30    0.01925   0.00000
 1138.40    0.01928   0.00000
 1138.50    0.01931   0.00000
 1138.60    0.01935   0.00000
 1138.70    0.01938   0.00000
 1138.80    0.01941   0.00000
 1138.90    0.01944   0.00000
 1139.00    0.01947   0.00000
 1139.10    0.01951   0.00000
 1139.20    0.01954   0.00000
 1139.30    0.01957   0.00000
 1139.40    0.01960   0.00000
 1139.50    0.01963   0.00000
 1139.60    0.01967   0.00000
