   W         E0+(pi0_p)
 (MeV)      Re         Im
 1074.0   -0.25557   -0.18720
 1075.0   -0.25652   -0.05352
 1076.0   -0.25864    0.07380
 1077.0   -0.26123    0.19380
 1078.0   -0.26406    0.30744
 1079.0   -0.26689    0.41424
 1080.0   -0.27090    0.51421
 1081.0   -0.27514    0.60852
 1082.0   -0.27986    0.69599
 1083.0   -0.28481    0.77780
 1084.0   -0.28976    0.85348
 1085.0   -0.29542    0.92280
 1086.0   -0.30060    0.98669
 1087.0   -0.30650    1.04492
 1088.0   -0.31310    1.09750
 1089.0   -0.31923    1.14395
 1090.0   -0.32607    1.18544
 1091.0   -0.33314    1.23047
 1092.0   -0.33974    1.27315
 1093.0   -0.34705    1.31323
 1094.0   -0.35389    1.35142
 1095.0   -0.36096    1.38702
 1096.0   -0.36874    1.42333
 1097.0   -0.37558    1.45775
 1098.0   -0.38265    1.49076
 1099.0   -0.38925    1.52283
 1100.0   -0.39680    1.55277
 1101.0   -0.40316    1.58342
 1102.0   -0.41047    1.61265
 1103.0   -0.41731    1.64142
 1104.0   -0.42438    1.66900
 1105.0   -0.43098    1.69517
 1106.0   -0.43924    1.72087
 1107.0   -0.44725    1.74704
 1108.0   -0.45503    1.77203
 1109.0   -0.46305    1.79514
 1110.0   -0.47201    1.81895
 1111.0   -0.47908    1.84135
 1112.0   -0.48521    1.86445
 1113.0   -0.49158    1.88567
 1114.0   -0.49771    1.90760
 1115.0   -0.50384    1.92811
 1116.0   -0.50997    1.94886
 1117.0   -0.51586    1.96819
 1118.0   -0.52270    1.98823
 1119.0   -0.52906    2.00757
 1120.0   -0.53543    2.02643
 1121.0   -0.54203    2.04505
 1122.0   -0.54910    2.06344
 1123.0   -0.55712    2.08160
 1124.0   -0.56372    2.09904
 1125.0   -0.57197    2.11602
 1126.0   -0.57999    2.13299
 1127.0   -0.58848    2.14926
 1128.0   -0.59791    2.16577
 1129.0   -0.60663    2.18133
 1130.0   -0.61701    2.19712
 1131.0   -0.62596    2.21221
 1132.0   -0.63587    2.22730
 1133.0   -0.64624    2.24168
 1134.0   -0.65638    2.25559
 1135.0   -0.66652    2.26950
 1136.0   -0.67901    2.28389
 1137.0   -0.69198    2.29709
 1138.0   -0.70613    2.31029
 1139.0   -0.72098    2.32302
 1140.0   -0.73678    2.33552
 1141.0   -0.75045    2.34825
 1142.0   -0.76530    2.36028
 1143.0   -0.77992    2.37230
 1144.0   -0.79501    2.38362
 1145.0   -0.80939    2.39564
 1146.0   -0.82613    2.40649
 1147.0   -0.84405    2.41780
 1148.0   -0.86173    2.42794
 1149.0   -0.88012    2.43926
 1150.0   -0.89946    2.44940
 1151.0   -0.91667    2.45906
 1152.0   -0.93388    2.46920
 1153.0   -0.95156    2.47887
 1154.0   -0.96830    2.48900
 1155.0   -0.98551    2.49796
 1156.0   -1.00272    2.50763
 1157.0   -1.01970    2.51659
 1158.0   -1.03714    2.52626
 1159.0   -1.05459    2.53474
 1160.0   -1.07227    2.54370
 1161.0   -1.08878    2.55219
 1162.0   -1.10622    2.56115
 1163.0   -1.12320    2.56964
 1164.0   -1.13970    2.57812
 1165.0   -1.15644    2.58591
 1166.0   -1.17271    2.59439
 1167.0   -1.18945    2.60288
 1168.0   -1.20666    2.61019
 1169.0   -1.22246    2.61797
 1170.0   -1.23943    2.62599
 1171.0   -1.25452    2.63329
 1172.0   -1.27008    2.64107
 1173.0   -1.28612    2.64838
 1174.0   -1.30073    2.65640
 1175.0   -1.31606    2.66371
 1176.0   -1.32973    2.67102
 1177.0   -1.34388    2.67833
 1178.0   -1.35732    2.68564
 1179.0   -1.36934    2.69294
 1180.0   -1.38231    2.70025
 1181.0   -1.39551    2.70780
 1182.0   -1.40966    2.71511
 1183.0   -1.42380    2.72194
 1184.0   -1.43724    2.72878
 1185.0   -1.45115    2.73515
 1186.0   -1.46388    2.74198
 1187.0   -1.47638    2.74953
 1188.0   -1.48935    2.75589
 1189.0   -1.50114    2.76273
 1190.0   -1.51340    2.76910
 1191.0   -1.52471    2.77546
 1192.0   -1.53603    2.78183
 1193.0   -1.54711    2.78819
 1194.0   -1.55725    2.79456
 1195.0   -1.56739    2.80093
 1196.0   -1.57823    2.80729
 1197.0   -1.58908    2.81366
 1198.0   -1.59992    2.81955
 1199.0   -1.61077    2.82615
 1200.0   -1.62138    2.83252
 1201.0   -1.63128    2.83841
 1202.0   -1.64024    2.84501
 1203.0   -1.64920    2.85091
 1204.0   -1.65792    2.85680
 1205.0   -1.66665    2.86270
 1206.0   -1.67466    2.86859
 1207.0   -1.68338    2.87519
 1208.0   -1.69069    2.88109
 1209.0   -1.69918    2.88698
 1210.0   -1.70696    2.89358
 1211.0   -1.71451    2.89901
 1212.0   -1.72158    2.90490
 1213.0   -1.72912    2.91103
 1214.0   -1.73596    2.91598
 1215.0   -1.74327    2.92140
 1216.0   -1.75081    2.92753
 1217.0   -1.75812    2.93248
 1218.0   -1.76543    2.93744
 1219.0   -1.77321    2.94239
 1220.0   -1.78099    2.94734
 1221.0   -1.78736    2.95135
 1222.0   -1.79302    2.95606
 1223.0   -1.79868    2.96007
 1224.0   -1.80433    2.96431
 1225.0   -1.80858    2.96856
 1226.0   -1.81447    2.97327
 1227.0   -1.81989    2.97799
 1228.0   -1.82461    2.98341
 1229.0   -1.82980    2.98813
 1230.0   -1.83475    2.99284
 1231.0   -1.83993    2.99826
 1232.0   -1.84441    3.00251
 1233.0   -1.84866    3.00793
 1234.0   -1.85290    3.01217
 1235.0   -1.85667    3.01713
 1236.0   -1.86092    3.02208
 1237.0   -1.86445    3.02585
 1238.0   -1.86799    3.03151
 1239.0   -1.87153    3.03646
 1240.0   -1.87436    3.04141
 1241.0   -1.87766    3.04589
 1242.0   -1.87954    3.05155
 1243.0   -1.88214    3.05650
 1244.0   -1.88379    3.06216
 1245.0   -1.88497    3.06711
 1246.0   -1.88732    3.07277
 1247.0   -1.88921    3.07842
 1248.0   -1.89157    3.08290
 1249.0   -1.89345    3.08856
 1250.0   -1.89581    3.09422
 1251.0   -1.89746    3.09988
 1252.0   -1.89911    3.10507
 1253.0   -1.90076    3.11096
 1254.0   -1.90171    3.11615
 1255.0   -1.90312    3.12086
 1256.0   -1.90406    3.12676
 1257.0   -1.90477    3.13194
 1258.0   -1.90548    3.13784
 1259.0   -1.90571    3.14303
 1260.0   -1.90642    3.14939
 1261.0   -1.90642    3.15458
 1262.0   -1.90571    3.16047
 1263.0   -1.90430    3.16637
 1264.0   -1.90359    3.17226
 1265.0   -1.90147    3.17815
 1266.0   -1.90076    3.18476
 1267.0   -1.89935    3.19065
 1268.0   -1.89911    3.19607
 1269.0   -1.89841    3.20197
 1270.0   -1.89746    3.20810
 1271.0   -1.89534    3.21399
 1272.0   -1.89369    3.22059
 1273.0   -1.89133    3.22719
 1274.0   -1.88897    3.23332
 1275.0   -1.88591    3.23993
 1276.0   -1.88284    3.24535
 1277.0   -1.87978    3.25195
 1278.0   -1.87671    3.25808
 1279.0   -1.87365    3.26421
 1280.0   -1.87011    3.27034
 1281.0   -1.86752    3.27765
 1282.0   -1.86375    3.28331
 1283.0   -1.86068    3.28944
 1284.0   -1.85809    3.29627
 1285.0   -1.85502    3.30311
 1286.0   -1.85125    3.30995
 1287.0   -1.84724    3.31608
 1288.0   -1.84276    3.32339
 1289.0   -1.83758    3.33023
 1290.0   -1.83239    3.33706
 1291.0   -1.82767    3.34437
 1292.0   -1.82225    3.35074
 1293.0   -1.81707    3.35828
 1294.0   -1.81164    3.36512
 1295.0   -1.80693    3.37196
 1296.0   -1.80103    3.37903
 1297.0   -1.79632    3.38587
 1298.0   -1.79089    3.39294
 1299.0   -1.78571    3.40048
 1300.0   -1.78029    3.40685
 1301.0   -1.77486    3.41392
 1302.0   -1.76873    3.42147
 1303.0   -1.76190    3.42925
 1304.0   -1.75506    3.43679
 1305.0   -1.74822    3.44387
 1306.0   -1.74138    3.45212
 1307.0   -1.73384    3.45919
 1308.0   -1.72700    3.46697
 1309.0   -1.71946    3.47452
 1310.0   -1.71191    3.48230
 1311.0   -1.70437    3.49008
 1312.0   -1.69612    3.49833
 1313.0   -1.68857    3.50611
 1314.0   -1.68079    3.51436
 1315.0   -1.67254    3.52214
 1316.0   -1.66429    3.53063
 1317.0   -1.65651    3.53841
 1318.0   -1.64826    3.54619
 1319.0   -1.63930    3.55468
 1320.0   -1.63034    3.56269
 1321.0   -1.62185    3.57047
 1322.0   -1.61218    3.57849
 1323.0   -1.60370    3.58698
 1324.0   -1.59450    3.59570
 1325.0   -1.58483    3.60372
 1326.0   -1.57635    3.61220
 1327.0   -1.56715    3.62093
 1328.0   -1.55819    3.62894
 1329.0   -1.54900    3.63814
 1330.0   -1.54051    3.64686
 1331.0   -1.53014    3.65559
 1332.0   -1.52023    3.66478
 1333.0   -1.51033    3.67350
 1334.0   -1.50043    3.68293
 1335.0   -1.49029    3.69166
 1336.0   -1.47968    3.70109
 1337.0   -1.46907    3.70981
 1338.0   -1.45846    3.71924
 1339.0   -1.44714    3.72867
 1340.0   -1.43583    3.73763
 1341.0   -1.42522    3.74706
 1342.0   -1.41390    3.75649
 1343.0   -1.40235    3.76616
 1344.0   -1.39103    3.77559
 1345.0   -1.38019    3.78573
 1346.0   -1.36816    3.79540
 1347.0   -1.35661    3.80506
 1348.0   -1.34506    3.81520
 1349.0   -1.33350    3.82487
 1350.0   -1.32195    3.83453
 1351.0   -1.30969    3.84491
 1352.0   -1.29814    3.85528
 1353.0   -1.28588    3.86495
 1354.0   -1.27362    3.87532
 1355.0   -1.26136    3.88570
 1356.0   -1.24910    3.89607
 1357.0   -1.23684    3.90715
 1358.0   -1.22505    3.91823
 1359.0   -1.21279    3.92813
 1360.0   -1.20100    3.93921
 1361.0   -1.18804    3.94982
 1362.0   -1.17554    3.96161
 1363.0   -1.16234    3.97222
 1364.0   -1.14913    3.98330
 1365.0   -1.13593    3.99462
 1366.0   -1.12273    4.00641
 1367.0   -1.11000    4.01773
 1368.0   -1.09679    4.02904
 1369.0   -1.08288    4.04107
 1370.0   -1.07015    4.05238
 1371.0   -1.05671    4.06441
 1372.0   -1.04398    4.07643
 1373.0   -1.03054    4.08846
 1374.0   -1.01781    4.10119
 1375.0   -1.00437    4.11321
 1376.0   -0.99093    4.12594
 1377.0   -0.97679    4.13820
 1378.0   -0.96264    4.15046
 1379.0   -0.94850    4.16272
 1380.0   -0.93435    4.17569
 1381.0   -0.92020    4.18795
 1382.0   -0.90653    4.20210
 1383.0   -0.89285    4.21506
 1384.0   -0.87918    4.22850
 1385.0   -0.86598    4.24218
 1386.0   -0.85159    4.25585
 1387.0   -0.83839    4.26953
 1388.0   -0.82401    4.28320
 1389.0   -0.81010    4.29711
 1390.0   -0.79619    4.31079
 1391.0   -0.78228    4.32540
 1392.0   -0.76766    4.33978
 1393.0   -0.75375    4.35487
 1394.0   -0.73913    4.36878
 1395.0   -0.72452    4.38458
 1396.0   -0.71037    4.39920
 1397.0   -0.69622    4.41452
 1398.0   -0.68208    4.42914
 1399.0   -0.66770    4.44470
 1400.0   -0.65355    4.46003
 1401.0   -0.63917    4.47559
 1402.0   -0.62431    4.49162
 1403.0   -0.60993    4.50765
 1404.0   -0.59555    4.52439
 1405.0   -0.58046    4.54066
 1406.0   -0.56608    4.55740
 1407.0   -0.55170    4.57437
 1408.0   -0.53779    4.59182
 1409.0   -0.52270    4.60880
 1410.0   -0.50879    4.62648
 1411.0   -0.49417    4.64416
 1412.0   -0.48026    4.66232
 1413.0   -0.46564    4.68071
 1414.0   -0.45150    4.69839
 1415.0   -0.43664    4.71796
 1416.0   -0.42203    4.73635
 1417.0   -0.40788    4.75568
 1418.0   -0.39373    4.77478
 1419.0   -0.37888    4.79411
 1420.0   -0.36450    4.81415
 1421.0   -0.35082    4.83466
 1422.0   -0.33644    4.85423
 1423.0   -0.32206    4.87498
 1424.0   -0.30815    4.89573
 1425.0   -0.29424    4.91671
 1426.0   -0.28033    4.93816
 1427.0   -0.26642    4.96033
 1428.0   -0.25180    4.98249
 1429.0   -0.23789    5.00489
 1430.0   -0.22327    5.02776
 1431.0   -0.20983    5.05086
 1432.0   -0.19569    5.07444
 1433.0   -0.18154    5.09754
 1434.0   -0.16857    5.12159
 1435.0   -0.15443    5.14540
 1436.0   -0.14075    5.17063
 1437.0   -0.12708    5.19586
 1438.0   -0.11340    5.22132
 1439.0   -0.09949    5.24796
 1440.0   -0.08582    5.27413
 1441.0   -0.07262    5.30148
 1442.0   -0.05989    5.32907
 1443.0   -0.04715    5.35665
 1444.0   -0.03442    5.38447
 1445.0   -0.02169    5.41347
 1446.0   -0.00896    5.44318
 1447.0    0.00448    5.47312
 1448.0    0.01721    5.50424
 1449.0    0.02947    5.53489
 1450.0    0.04173    5.56743
 1451.0    0.05399    5.59949
 1452.0    0.06625    5.63297
 1453.0    0.07804    5.66716
 1454.0    0.08983    5.70135
 1455.0    0.10114    5.73648
 1456.0    0.11293    5.77231
 1457.0    0.12354    5.80956
 1458.0    0.13368    5.84681
 1459.0    0.14429    5.88548
 1460.0    0.15443    5.92438
 1461.0    0.16457    5.96470
 1462.0    0.17423    6.00572
 1463.0    0.18437    6.04816
 1464.0    0.19333    6.09201
 1465.0    0.20300    6.13657
 1466.0    0.21125    6.18326
 1467.0    0.21903    6.23159
 1468.0    0.22657    6.28110
 1469.0    0.23317    6.33155
 1470.0    0.24025    6.38413
 1471.0    0.24543    6.43836
 1472.0    0.24991    6.49471
 1473.0    0.25392    6.55318
 1474.0    0.25699    6.61306
 1475.0    0.25911    6.67530
 1476.0    0.26029    6.74226
 1477.0    0.25887    6.81158
 1478.0    0.25746    6.88325
 1479.0    0.25463    6.95893
 1480.0    0.25062    7.03626
 1481.0    0.23860    7.12680
 1482.0    0.22186    7.22205
 1483.0    0.20229    7.32343
 1484.0    0.17918    7.43047
 1485.0    0.15278    7.54340
 1486.0    0.07969    7.62734
 1487.0   -0.01155    7.70514
 1488.0   -0.12048    7.77799
 1489.0   -0.24826    7.84542
 1490.0   -0.39373    7.90837
 1491.0   -0.46706    7.94067
 1492.0   -0.54085    7.97226
 1493.0   -0.61488    8.00386
 1494.0   -0.68868    8.03545
 1495.0   -0.76318    8.06704
 1496.0   -0.83981    8.09604
 1497.0   -0.91832    8.12316
 1498.0   -0.99683    8.15074
 1499.0   -1.07675    8.17644
 1500.0   -1.15715    8.20096
 1501.0   -1.23896    8.21982
 1502.0   -1.32148    8.23680
 1503.0   -1.40518    8.25047
 1504.0   -1.49005    8.26202
 1505.0   -1.57564    8.27075
 1506.0   -1.66004    8.27476
 1507.0   -1.74421    8.27546
 1508.0   -1.82838    8.27263
 1509.0   -1.91326    8.26627
 1510.0   -1.99743    8.25731
 1511.0   -2.07995    8.24576
 1512.0   -2.16176    8.23137
 1513.0   -2.24333    8.21440
 1514.0   -2.32420    8.19459
 1515.0   -2.40436    8.17149
 1516.0   -2.48240    8.14650
 1517.0   -2.55879    8.11868
 1518.0   -2.63447    8.08897
 1519.0   -2.70945    8.05596
 1520.0   -2.78230    8.02036
 1521.0   -2.85279    7.98429
 1522.0   -2.92140    7.94680
 1523.0   -2.98836    7.90696
 1524.0   -3.05390    7.86570
 1525.0   -3.11733    7.82255
 1526.0   -3.17933    7.77823
 1527.0   -3.23922    7.73272
 1528.0   -3.29745    7.68581
 1529.0   -3.35380    7.63653
 1530.0   -3.40921    7.58726
 1531.0   -3.46202    7.53680
 1532.0   -3.51271    7.48399
 1533.0   -3.56151    7.43118
 1534.0   -3.60937    7.37671
 1535.0   -3.65582    7.32037
 1536.0   -3.69967    7.26567
 1537.0   -3.74188    7.20979
 1538.0   -3.78266    7.15415
 1539.0   -3.82086    7.09733
 1540.0   -3.85811    7.04004
 1541.0   -3.89371    6.98298
 1542.0   -3.92837    6.92545
 1543.0   -3.96067    6.86698
 1544.0   -3.99273    6.80851
 1545.0   -4.02220    6.74910
 1546.0   -4.05050    6.69063
 1547.0   -4.07808    6.63098
 1548.0   -4.10425    6.57180
 1549.0   -4.12854    6.51215
 1550.0   -4.15164    6.45203
 1551.0   -4.17286    6.39167
 1552.0   -4.19290    6.33203
 1553.0   -4.21223    6.27143
 1554.0   -4.22992    6.21108
 1555.0   -4.24618    6.15025
 1556.0   -4.26080    6.08966
 1557.0   -4.27495    6.02883
 1558.0   -4.28768    5.96871
 1559.0   -4.29947    5.90811
 1560.0   -4.31008    5.84729
 1561.0   -4.31904    5.78669
 1562.0   -4.32635    5.72563
 1563.0   -4.33248    5.66480
 1564.0   -4.33743    5.60421
 1565.0   -4.34073    5.54315
 1566.0   -4.34309    5.48302
 1567.0   -4.34426    5.42290
 1568.0   -4.34403    5.36231
 1569.0   -4.34332    5.30195
 1570.0   -4.34096    5.24183
 1571.0   -4.33696    5.18171
 1572.0   -4.33153    5.12230
 1573.0   -4.32493    5.06312
 1574.0   -4.31668    5.00394
 1575.0   -4.30772    4.94500
 1576.0   -4.29687    4.88724
 1577.0   -4.28532    4.82947
 1578.0   -4.27212    4.77265
 1579.0   -4.25797    4.71513
 1580.0   -4.24288    4.65949
 1581.0   -4.22567    4.60384
 1582.0   -4.20752    4.54868
 1583.0   -4.18724    4.49468
 1584.0   -4.16602    4.44093
 1585.0   -4.14386    4.38765
 1586.0   -4.12076    4.33648
 1587.0   -4.09553    4.28485
 1588.0   -4.07007    4.23487
 1589.0   -4.04295    4.18606
 1590.0   -4.01442    4.13702
 1591.0   -3.98542    4.09034
 1592.0   -3.95478    4.04484
 1593.0   -3.92436    4.00028
 1594.0   -3.89183    3.95619
 1595.0   -3.85835    3.91328
 1596.0   -3.82440    3.87296
 1597.0   -3.78950    3.83383
 1598.0   -3.75414    3.79563
 1599.0   -3.71736    3.75838
 1600.0   -3.68011    3.72207
 1601.0   -3.64285    3.68859
 1602.0   -3.60442    3.65559
 1603.0   -3.56623    3.62470
 1604.0   -3.52709    3.59405
 1605.0   -3.48795    3.56505
 1606.0   -3.44835    3.53888
 1607.0   -3.40874    3.51483
 1608.0   -3.36866    3.49196
 1609.0   -3.32881    3.46980
 1610.0   -3.28826    3.44976
 1611.0   -3.24841    3.43090
 1612.0   -3.20786    3.41416
 1613.0   -3.16849    3.39883
 1614.0   -3.12864    3.38445
 1615.0   -3.08833    3.37031
 1616.0   -3.05037    3.35993
 1617.0   -3.01288    3.35050
 1618.0   -2.97492    3.34249
 1619.0   -2.93744    3.33494
 1620.0   -2.90042    3.32881
 1621.0   -2.86482    3.32504
 1622.0   -2.83087    3.32244
 1623.0   -2.79621    3.32079
 1624.0   -2.76273    3.31985
 1625.0   -2.72854    3.31938
 1626.0   -2.69790    3.32197
 1627.0   -2.66795    3.32575
 1628.0   -2.63895    3.32975
 1629.0   -2.61043    3.33541
 1630.0   -2.58190    3.34083
 1631.0   -2.55785    3.34744
 1632.0   -2.53427    3.35522
 1633.0   -2.51187    3.36276
 1634.0   -2.48924    3.37125
 1635.0   -2.46755    3.37950
 1636.0   -2.44987    3.38822
 1637.0   -2.43336    3.39742
 1638.0   -2.41710    3.40685
 1639.0   -2.40059    3.41628
 1640.0   -2.38432    3.42665
 1641.0   -2.37419    3.43585
 1642.0   -2.36452    3.44552
 1643.0   -2.35532    3.45518
 1644.0   -2.34707    3.46579
 1645.0   -2.33811    3.47711
 1646.0   -2.33340    3.48418
 1647.0   -2.32939    3.49196
 1648.0   -2.32632    3.49927
 1649.0   -2.32232    3.50682
 1650.0   -2.31807    3.51554
 1651.0   -2.31831    3.52002
 1652.0   -2.31854    3.52426
 1653.0   -2.31972    3.52874
 1654.0   -2.32137    3.53369
 1655.0   -2.32279    3.54053
 1656.0   -2.32538    3.54053
 1657.0   -2.32774    3.53982
 1658.0   -2.33104    3.54029
 1659.0   -2.33434    3.53959
 1660.0   -2.33670    3.54077
 1661.0   -2.34023    3.53723
 1662.0   -2.34471    3.53369
 1663.0   -2.34849    3.53086
 1664.0   -2.35320    3.52803
 1665.0   -2.35839    3.52733
 1666.0   -2.36216    3.52096
 1667.0   -2.36570    3.51342
 1668.0   -2.37041    3.50634
 1669.0   -2.37489    3.49951
 1670.0   -2.37984    3.49338
 1671.0   -2.38267    3.48442
 1672.0   -2.38597    3.47617
 1673.0   -2.38975    3.46744
 1674.0   -2.39281    3.45990
 1675.0   -2.39823    3.45235
 1676.0   -2.40012    3.44222
 1677.0   -2.40201    3.43208
 1678.0   -2.40554    3.42123
 1679.0   -2.40837    3.41062
 1680.0   -2.41238    3.40001
 1681.0   -2.41356    3.38940
 1682.0   -2.41521    3.37761
 1683.0   -2.41662    3.36583
 1684.0   -2.41875    3.35475
 1685.0   -2.42087    3.34319
 1686.0   -2.42134    3.33211
 1687.0   -2.42228    3.31938
 1688.0   -2.42299    3.30712
 1689.0   -2.42440    3.29510
 1690.0   -2.42653    3.28189
 1691.0   -2.42629    3.26987
 1692.0   -2.42676    3.25667
 1693.0   -2.42653    3.24417
 1694.0   -2.42747    3.23097
 1695.0   -2.42888    3.21847
 1696.0   -2.42770    3.20550
 1697.0   -2.42770    3.19254
 1698.0   -2.42747    3.17981
 1699.0   -2.42676    3.16707
 1700.0   -2.42770    3.15363
 1701.0   -2.42676    3.14043
 1702.0   -2.42558    3.12770
 1703.0   -2.42440    3.11332
 1704.0   -2.42323    3.09941
 1705.0   -2.42252    3.08526
 1706.0   -2.42110    3.07206
 1707.0   -2.42016    3.05862
 1708.0   -2.41922    3.04565
 1709.0   -2.41827    3.03221
 1710.0   -2.41733    3.01925
 1711.0   -2.41497    3.00534
 1712.0   -2.41309    2.99072
 1713.0   -2.41073    2.97681
 1714.0   -2.40884    2.96219
 1715.0   -2.40696    2.94710
 1716.0   -2.40436    2.93272
 1717.0   -2.40177    2.91857
 1718.0   -2.39965    2.90490
 1719.0   -2.39753    2.89075
 1720.0   -2.39611    2.87614
 1721.0   -2.39328    2.86199
 1722.0   -2.39092    2.84808
 1723.0   -2.38810    2.83346
 1724.0   -2.38503    2.81955
 1725.0   -2.38220    2.80446
 1726.0   -2.37843    2.79008
 1727.0   -2.37536    2.77641
 1728.0   -2.37159    2.76202
 1729.0   -2.36829    2.74764
 1730.0   -2.36452    2.73350
 1731.0   -2.36122    2.71982
 1732.0   -2.35745    2.70638
 1733.0   -2.35415    2.69224
 1734.0   -2.35037    2.67927
 1735.0   -2.34707    2.66583
 1736.0   -2.34259    2.65192
 1737.0   -2.33858    2.63801
 1738.0   -2.33387    2.62363
