   W         M1-(pi0_p)
 (MeV)      Re         Im
 1074.0   -0.30909    0.00000
 1075.0   -0.48710    0.00000
 1076.0   -0.61842    0.00000
 1077.0   -0.72734    0.00000
 1078.0   -0.82330    0.00000
 1079.0   -0.90912    0.00000
 1080.0   -0.98787    0.00000
 1081.0   -1.06096    0.00047
 1082.0   -1.12957    0.00047
 1083.0   -1.19369    0.00094
 1084.0   -1.25429    0.00071
 1085.0   -1.31205    0.00118
 1086.0   -1.36722    0.00165
 1087.0   -1.41909    0.00212
 1088.0   -1.46954    0.00259
 1089.0   -1.51835    0.00236
 1090.0   -1.56479    0.00330
 1091.0   -1.60959    0.00377
 1092.0   -1.65273    0.00401
 1093.0   -1.69447    0.00495
 1094.0   -1.73502    0.00589
 1095.0   -1.77368    0.00566
 1096.0   -1.81141    0.00660
 1097.0   -1.84795    0.00802
 1098.0   -1.88379    0.00825
 1099.0   -1.91821    0.00919
 1100.0   -1.95169    0.01014
 1101.0   -1.98375    0.01085
 1102.0   -2.01558    0.01179
 1103.0   -2.04600    0.01250
 1104.0   -2.07547    0.01391
 1105.0   -2.10470    0.01532
 1106.0   -2.13299    0.01603
 1107.0   -2.16034    0.01698
 1108.0   -2.18675    0.01815
 1109.0   -2.21221    0.01957
 1110.0   -2.23744    0.02028
 1111.0   -2.26220    0.02169
 1112.0   -2.28601    0.02358
 1113.0   -2.30888    0.02428
 1114.0   -2.33128    0.02570
 1115.0   -2.35273    0.02688
 1116.0   -2.37395    0.02876
 1117.0   -2.39446    0.02947
 1118.0   -2.41474    0.03136
 1119.0   -2.43407    0.03254
 1120.0   -2.45293    0.03442
 1121.0   -2.47132    0.03631
 1122.0   -2.48877    0.03749
 1123.0   -2.50645    0.03937
 1124.0   -2.52296    0.04055
 1125.0   -2.53969    0.04244
 1126.0   -2.55478    0.04480
 1127.0   -2.57058    0.04597
 1128.0   -2.58473    0.04786
 1129.0   -2.59958    0.04951
 1130.0   -2.61349    0.05140
 1131.0   -2.62622    0.05376
 1132.0   -2.63919    0.05493
 1133.0   -2.65216    0.05729
 1134.0   -2.66418    0.05965
 1135.0   -2.67573    0.06083
 1136.0   -2.68681    0.06319
 1137.0   -2.69742    0.06554
 1138.0   -2.70803    0.06719
 1139.0   -2.71770    0.06955
 1140.0   -2.72737    0.07191
 1141.0   -2.73727    0.07356
 1142.0   -2.74552    0.07592
 1143.0   -2.75377    0.07828
 1144.0   -2.76155    0.08063
 1145.0   -2.76886    0.08299
 1146.0   -2.77688    0.08464
 1147.0   -2.78324    0.08747
 1148.0   -2.78961    0.08983
 1149.0   -2.79597    0.09219
 1150.0   -2.80210    0.09454
 1151.0   -2.80753    0.09737
 1152.0   -2.81248    0.09902
 1153.0   -2.81696    0.10185
 1154.0   -2.82144    0.10421
 1155.0   -2.82497    0.10657
 1156.0   -2.82969    0.10940
 1157.0   -2.83275    0.11223
 1158.0   -2.83582    0.11458
 1159.0   -2.83841    0.11741
 1160.0   -2.84053    0.11977
 1161.0   -2.84266    0.12260
 1162.0   -2.84431    0.12614
 1163.0   -2.84596    0.12849
 1164.0   -2.84714    0.13132
 1165.0   -2.84784    0.13415
 1166.0   -2.84855    0.13651
 1167.0   -2.84879    0.13934
 1168.0   -2.84902    0.14288
 1169.0   -2.84879    0.14570
 1170.0   -2.84808    0.14806
 1171.0   -2.84666    0.15160
 1172.0   -2.84549    0.15443
 1173.0   -2.84431    0.15726
 1174.0   -2.84266    0.16079
 1175.0   -2.84030    0.16315
 1176.0   -2.83818    0.16669
 1177.0   -2.83488    0.16952
 1178.0   -2.83275    0.17305
 1179.0   -2.82898    0.17588
 1180.0   -2.82592    0.17942
 1181.0   -2.82214    0.18225
 1182.0   -2.81790    0.18531
 1183.0   -2.81436    0.18885
 1184.0   -2.80965    0.19239
 1185.0   -2.80493    0.19522
 1186.0   -2.79975    0.19875
 1187.0   -2.79409    0.20229
 1188.0   -2.78890    0.20583
 1189.0   -2.78277    0.20936
 1190.0   -2.77711    0.21243
 1191.0   -2.77098    0.21596
 1192.0   -2.76367    0.21950
 1193.0   -2.75707    0.22304
 1194.0   -2.75047    0.22657
 1195.0   -2.74269    0.23082
 1196.0   -2.73562    0.23435
 1197.0   -2.72737    0.23742
 1198.0   -2.71911    0.24166
 1199.0   -2.71157    0.24520
 1200.0   -2.70285    0.24874
 1201.0   -2.69412    0.25251
 1202.0   -2.68540    0.25675
 1203.0   -2.67620    0.26029
 1204.0   -2.66654    0.26453
 1205.0   -2.65734    0.26878
 1206.0   -2.64768    0.27184
 1207.0   -2.63754    0.27608
 1208.0   -2.62740    0.28033
 1209.0   -2.61656    0.28410
 1210.0   -2.60642    0.28834
 1211.0   -2.59510    0.29259
 1212.0   -2.58449    0.29707
 1213.0   -2.57270    0.30131
 1214.0   -2.56209    0.30508
 1215.0   -2.55030    0.31004
 1216.0   -2.53804    0.31428
 1217.0   -2.52626    0.31923
 1218.0   -2.51352    0.32347
 1219.0   -2.50126    0.32843
 1220.0   -2.48853    0.33338
 1221.0   -2.47509    0.33880
 1222.0   -2.46189    0.34422
 1223.0   -2.44845    0.34964
 1224.0   -2.43454    0.35507
 1225.0   -2.42016    0.36049
 1226.0   -2.40649    0.36662
 1227.0   -2.39210    0.37204
 1228.0   -2.37772    0.37817
 1229.0   -2.36287    0.38312
 1230.0   -2.34802    0.38925
 1231.0   -2.33316    0.39538
 1232.0   -2.31831    0.40151
 1233.0   -2.30298    0.40764
 1234.0   -2.28766    0.41377
 1235.0   -2.27233    0.41990
 1236.0   -2.25630    0.42674
 1237.0   -2.24050    0.43287
 1238.0   -2.22400    0.43971
 1239.0   -2.20750    0.44607
 1240.0   -2.19099    0.45291
 1241.0   -2.17402    0.45975
 1242.0   -2.15704    0.46659
 1243.0   -2.14007    0.47342
 1244.0   -2.12238    0.48097
 1245.0   -2.10541    0.48780
 1246.0   -2.08726    0.49535
 1247.0   -2.06981    0.50242
 1248.0   -2.05165    0.50997
 1249.0   -2.03303    0.51751
 1250.0   -2.01511    0.52576
 1251.0   -1.99648    0.53331
 1252.0   -1.97786    0.54156
 1253.0   -1.95923    0.54934
 1254.0   -1.94014    0.55759
 1255.0   -1.92175    0.56584
 1256.0   -1.90312    0.57410
 1257.0   -1.88284    0.58305
 1258.0   -1.86375    0.59154
 1259.0   -1.84465    0.60050
 1260.0   -1.82508    0.60946
 1261.0   -1.80481    0.61913
 1262.0   -1.78524    0.62761
 1263.0   -1.76496    0.63728
 1264.0   -1.74468    0.64695
 1265.0   -1.72394    0.65661
 1266.0   -1.70319    0.66652
 1267.0   -1.68244    0.67618
 1268.0   -1.66240    0.68656
 1269.0   -1.64165    0.69646
 1270.0   -1.62091    0.70754
 1271.0   -1.60087    0.71791
 1272.0   -1.57965    0.72900
 1273.0   -1.55843    0.74031
 1274.0   -1.53721    0.75139
 1275.0   -1.51599    0.76271
 1276.0   -1.49359    0.77450
 1277.0   -1.47237    0.78629
 1278.0   -1.45115    0.79760
 1279.0   -1.42946    0.81010
 1280.0   -1.40706    0.82260
 1281.0   -1.38585    0.83462
 1282.0   -1.36298    0.84782
 1283.0   -1.34129    0.86055
 1284.0   -1.31889    0.87376
 1285.0   -1.29602    0.88767
 1286.0   -1.27433    0.90111
 1287.0   -1.25216    0.91502
 1288.0   -1.23000    0.92963
 1289.0   -1.20784    0.94378
 1290.0   -1.18639    0.95840
 1291.0   -1.16375    0.97325
 1292.0   -1.14159    0.98858
 1293.0   -1.11896    1.00390
 1294.0   -1.09679    1.01946
 1295.0   -1.07416    1.03549
 1296.0   -1.05223    1.05105
 1297.0   -1.02960    1.06779
 1298.0   -1.00767    1.08453
 1299.0   -0.98504    1.10151
 1300.0   -0.96241    1.11825
 1301.0   -0.94048    1.13640
 1302.0   -0.91855    1.15338
 1303.0   -0.89615    1.17224
 1304.0   -0.87423    1.18992
 1305.0   -0.85301    1.20878
 1306.0   -0.83061    1.22764
 1307.0   -0.80939    1.24674
 1308.0   -0.78841    1.26631
 1309.0   -0.76672    1.28659
 1310.0   -0.74573    1.30639
 1311.0   -0.72522    1.32667
 1312.0   -0.70424    1.34765
 1313.0   -0.68349    1.36863
 1314.0   -0.66251    1.38985
 1315.0   -0.64223    1.41154
 1316.0   -0.62266    1.43323
 1317.0   -0.60262    1.45563
 1318.0   -0.58305    1.47803
 1319.0   -0.56419    1.50066
 1320.0   -0.54486    1.52377
 1321.0   -0.52600    1.54758
 1322.0   -0.50737    1.57069
 1323.0   -0.48875    1.59521
 1324.0   -0.47130    1.61902
 1325.0   -0.45338    1.64354
 1326.0   -0.43664    1.66877
 1327.0   -0.41943    1.69329
 1328.0   -0.40293    1.71851
 1329.0   -0.38690    1.74445
 1330.0   -0.37110    1.77038
 1331.0   -0.35577    1.79632
 1332.0   -0.34068    1.82272
 1333.0   -0.32677    1.84937
 1334.0   -0.31169    1.87601
 1335.0   -0.29801    1.90265
 1336.0   -0.28552    1.92976
 1337.0   -0.27255    1.95711
 1338.0   -0.26029    1.98446
 1339.0   -0.24921    2.01228
 1340.0   -0.23836    2.03963
 1341.0   -0.22752    2.06745
 1342.0   -0.21785    2.09551
 1343.0   -0.20771    2.12333
 1344.0   -0.19875    2.15186
 1345.0   -0.19050    2.17991
 1346.0   -0.18178    2.20773
 1347.0   -0.17494    2.23626
 1348.0   -0.16810    2.26432
 1349.0   -0.16221    2.29214
 1350.0   -0.15679    2.32019
 1351.0   -0.15207    2.34872
 1352.0   -0.14806    2.37654
 1353.0   -0.14476    2.40436
 1354.0   -0.14217    2.43218
 1355.0   -0.14075    2.46048
 1356.0   -0.13816    2.48830
 1357.0   -0.13698    2.51494
 1358.0   -0.13627    2.54205
 1359.0   -0.13510    2.56917
 1360.0   -0.13510    2.59557
 1361.0   -0.13651    2.62198
 1362.0   -0.13792    2.64838
 1363.0   -0.14005    2.67408
 1364.0   -0.14288    2.69978
 1365.0   -0.14641    2.72477
 1366.0   -0.14995    2.75024
 1367.0   -0.15466    2.77452
 1368.0   -0.16009    2.79810
 1369.0   -0.16551    2.82167
 1370.0   -0.17164    2.84525
 1371.0   -0.17777    2.86812
 1372.0   -0.18461    2.89075
 1373.0   -0.19144    2.91292
 1374.0   -0.19899    2.93390
 1375.0   -0.20724    2.95535
 1376.0   -0.21596    2.97657
 1377.0   -0.22469    2.99591
 1378.0   -0.23412    3.01595
 1379.0   -0.24355    3.03457
 1380.0   -0.25416    3.05320
 1381.0   -0.26430    3.07112
 1382.0   -0.27491    3.08833
 1383.0   -0.28622    3.10554
 1384.0   -0.29754    3.12086
 1385.0   -0.30886    3.13666
 1386.0   -0.32017    3.15246
 1387.0   -0.33149    3.16755
 1388.0   -0.34328    3.18146
 1389.0   -0.35530    3.19584
 1390.0   -0.36709    3.21022
 1391.0   -0.37959    3.22271
 1392.0   -0.39138    3.23497
 1393.0   -0.40434    3.24676
 1394.0   -0.41684    3.25714
 1395.0   -0.42981    3.26798
 1396.0   -0.44277    3.27765
 1397.0   -0.45574    3.28732
 1398.0   -0.46800    3.29627
 1399.0   -0.48097    3.30523
 1400.0   -0.49441    3.31231
 1401.0   -0.50714    3.32056
 1402.0   -0.51987    3.32810
 1403.0   -0.53260    3.33447
 1404.0   -0.54604    3.34131
 1405.0   -0.55877    3.34767
 1406.0   -0.57127    3.35309
 1407.0   -0.58400    3.35805
 1408.0   -0.59649    3.36229
 1409.0   -0.60899    3.36583
 1410.0   -0.62148    3.36889
 1411.0   -0.63398    3.37243
 1412.0   -0.64624    3.37526
 1413.0   -0.65803    3.37832
 1414.0   -0.67029    3.38044
 1415.0   -0.68255    3.38280
 1416.0   -0.69410    3.38492
 1417.0   -0.70636    3.38539
 1418.0   -0.71791    3.38634
 1419.0   -0.72923    3.38728
 1420.0   -0.74078    3.38705
 1421.0   -0.75210    3.38610
 1422.0   -0.76342    3.38634
 1423.0   -0.77403    3.38539
 1424.0   -0.78534    3.38492
 1425.0   -0.79595    3.38327
 1426.0   -0.80586    3.38162
 1427.0   -0.81694    3.37997
 1428.0   -0.82684    3.37761
 1429.0   -0.83721    3.37526
 1430.0   -0.84688    3.37243
 1431.0   -0.85655    3.36960
 1432.0   -0.86621    3.36653
 1433.0   -0.87588    3.36370
 1434.0   -0.88602    3.35970
 1435.0   -0.89498    3.35687
 1436.0   -0.90441    3.35333
 1437.0   -0.91266    3.34862
 1438.0   -0.92256    3.34461
 1439.0   -0.93128    3.33989
 1440.0   -0.94001    3.33518
 1441.0   -0.94850    3.33046
 1442.0   -0.95722    3.32575
 1443.0   -0.96453    3.32056
 1444.0   -0.97302    3.31514
 1445.0   -0.98103    3.30995
 1446.0   -0.98881    3.30453
 1447.0   -0.99659    3.29863
 1448.0   -1.00437    3.29227
 1449.0   -1.01145    3.28637
 1450.0   -1.01923    3.28048
 1451.0   -1.02630    3.27411
 1452.0   -1.03266    3.26822
 1453.0   -1.03974    3.26115
 1454.0   -1.04657    3.25478
 1455.0   -1.05294    3.24771
 1456.0   -1.05978    3.24134
 1457.0   -1.06662    3.23427
 1458.0   -1.07298    3.22743
 1459.0   -1.07911    3.22036
 1460.0   -1.08524    3.21281
 1461.0   -1.09137    3.20527
 1462.0   -1.09797    3.19772
 1463.0   -1.10339    3.19041
 1464.0   -1.10952    3.18287
 1465.0   -1.11542    3.17485
 1466.0   -1.12084    3.16731
 1467.0   -1.12626    3.15929
 1468.0   -1.13145    3.15128
 1469.0   -1.13687    3.14303
 1470.0   -1.14159    3.13501
 1471.0   -1.14678    3.12652
 1472.0   -1.15196    3.11851
 1473.0   -1.15597    3.11002
 1474.0   -1.16116    3.10200
 1475.0   -1.16564    3.09351
 1476.0   -1.17082    3.08503
 1477.0   -1.17530    3.07583
 1478.0   -1.17978    3.06734
 1479.0   -1.18474    3.05838
 1480.0   -1.18921    3.04943
 1481.0   -1.19299    3.04094
 1482.0   -1.19747    3.03198
 1483.0   -1.20124    3.02278
 1484.0   -1.20501    3.01382
 1485.0   -1.20925    3.00487
 1486.0   -1.21303    2.99591
 1487.0   -1.21680    2.98648
 1488.0   -1.22104    2.97752
 1489.0   -1.22411    2.96738
 1490.0   -1.22764    2.95795
 1491.0   -1.23118    2.94852
 1492.0   -1.23425    2.93909
 1493.0   -1.23849    2.93013
 1494.0   -1.24203    2.92070
 1495.0   -1.24509    2.91127
 1496.0   -1.24863    2.90136
 1497.0   -1.25146    2.89193
 1498.0   -1.25452    2.88203
 1499.0   -1.25735    2.87260
 1500.0   -1.26042    2.86340
 1501.0   -1.26325    2.85350
 1502.0   -1.26608    2.84360
 1503.0   -1.26961    2.83370
 1504.0   -1.27244    2.82380
 1505.0   -1.27527    2.81342
 1506.0   -1.27692    2.80352
 1507.0   -1.27975    2.79315
 1508.0   -1.28258    2.78395
 1509.0   -1.28541    2.77358
 1510.0   -1.28753    2.76367
 1511.0   -1.29036    2.75330
 1512.0   -1.29248    2.74363
 1513.0   -1.29531    2.73326
 1514.0   -1.29743    2.72289
 1515.0   -1.29908    2.71251
 1516.0   -1.30120    2.70237
 1517.0   -1.30333    2.69200
 1518.0   -1.30545    2.68233
 1519.0   -1.30757    2.67149
 1520.0   -1.30969    2.66182
 1521.0   -1.31181    2.65098
 1522.0   -1.31394    2.64084
 1523.0   -1.31535    2.62999
 1524.0   -1.31747    2.61986
 1525.0   -1.31889    2.60901
 1526.0   -1.32101    2.59887
 1527.0   -1.32242    2.58873
 1528.0   -1.32455    2.57789
 1529.0   -1.32596    2.56775
 1530.0   -1.32761    2.55761
 1531.0   -1.32903    2.54630
 1532.0   -1.33044    2.53616
 1533.0   -1.33185    2.52555
 1534.0   -1.33327    2.51494
 1535.0   -1.33492    2.50409
 1536.0   -1.33633    2.49348
 1537.0   -1.33704    2.48287
 1538.0   -1.33846    2.47226
 1539.0   -1.33940    2.46166
 1540.0   -1.34081    2.45105
 1541.0   -1.34223    2.44044
 1542.0   -1.34364    2.43030
 1543.0   -1.34388    2.41969
 1544.0   -1.34529    2.40908
 1545.0   -1.34624    2.39847
 1546.0   -1.34765    2.38739
 1547.0   -1.34836    2.37678
 1548.0   -1.34930    2.36617
 1549.0   -1.35001    2.35509
 1550.0   -1.35095    2.34448
 1551.0   -1.35166    2.33340
 1552.0   -1.35260    2.32279
 1553.0   -1.35331    2.31171
 1554.0   -1.35425    2.30180
 1555.0   -1.35449    2.29072
 1556.0   -1.35520    2.28011
 1557.0   -1.35543    2.26974
 1558.0   -1.35685    2.25866
 1559.0   -1.35708    2.24805
 1560.0   -1.35732    2.23697
 1561.0   -1.35802    2.22659
 1562.0   -1.35826    2.21598
 1563.0   -1.35850    2.20490
 1564.0   -1.35873    2.19453
 1565.0   -1.35967    2.18345
 1566.0   -1.35991    2.17237
 1567.0   -1.36015    2.16247
 1568.0   -1.36038    2.15138
 1569.0   -1.36062    2.14101
 1570.0   -1.36085    2.12993
 1571.0   -1.36038    2.11956
 1572.0   -1.36062    2.10847
 1573.0   -1.36085    2.09810
 1574.0   -1.36109    2.08702
 1575.0   -1.36133    2.07594
 1576.0   -1.36156    2.06556
 1577.0   -1.36109    2.05519
 1578.0   -1.36085    2.04458
 1579.0   -1.36109    2.03421
 1580.0   -1.36133    2.02313
 1581.0   -1.36109    2.01275
 1582.0   -1.36062    2.00238
 1583.0   -1.36085    1.99130
 1584.0   -1.36062    1.98092
 1585.0   -1.35967    1.97055
 1586.0   -1.35991    1.95947
 1587.0   -1.35897    1.94957
 1588.0   -1.35920    1.93919
 1589.0   -1.35826    1.92811
 1590.0   -1.35802    1.91774
 1591.0   -1.35755    1.90736
 1592.0   -1.35732    1.89628
 1593.0   -1.35708    1.88638
 1594.0   -1.35614    1.87601
 1595.0   -1.35637    1.86493
 1596.0   -1.35614    1.85455
 1597.0   -1.35520    1.84465
 1598.0   -1.35425    1.83428
 1599.0   -1.35331    1.82437
 1600.0   -1.35237    1.81329
 1601.0   -1.35213    1.80339
 1602.0   -1.35119    1.79302
 1603.0   -1.35095    1.78311
 1604.0   -1.34954    1.77203
 1605.0   -1.34930    1.76213
 1606.0   -1.34836    1.75176
 1607.0   -1.34812    1.74186
 1608.0   -1.34718    1.73195
 1609.0   -1.34576    1.72087
 1610.0   -1.34482    1.71097
 1611.0   -1.34459    1.70107
 1612.0   -1.34317    1.69117
 1613.0   -1.34223    1.68126
 1614.0   -1.34081    1.67136
 1615.0   -1.33940    1.66146
 1616.0   -1.33846    1.65156
 1617.0   -1.33704    1.64095
 1618.0   -1.33681    1.63104
 1619.0   -1.33539    1.62114
 1620.0   -1.33445    1.61124
 1621.0   -1.33374    1.60181
 1622.0   -1.33233    1.59191
 1623.0   -1.33138    1.58248
 1624.0   -1.32997    1.57257
 1625.0   -1.32855    1.56314
 1626.0   -1.32714    1.55253
 1627.0   -1.32572    1.54310
 1628.0   -1.32431    1.53367
 1629.0   -1.32290    1.52424
 1630.0   -1.32148    1.51481
 1631.0   -1.31936    1.50538
 1632.0   -1.31794    1.49595
 1633.0   -1.31653    1.48581
 1634.0   -1.31511    1.47638
 1635.0   -1.31370    1.46695
 1636.0   -1.31229    1.45752
 1637.0   -1.31087    1.44856
 1638.0   -1.30946    1.43913
 1639.0   -1.30804    1.43017
 1640.0   -1.30663    1.42074
 1641.0   -1.30474    1.41178
 1642.0   -1.30333    1.40282
 1643.0   -1.30191    1.39315
 1644.0   -1.30003    1.38419
 1645.0   -1.29861    1.37524
 1646.0   -1.29720    1.36628
 1647.0   -1.29578    1.35732
 1648.0   -1.29319    1.34765
 1649.0   -1.29177    1.33869
 1650.0   -1.29036    1.33020
 1651.0   -1.28777    1.32124
 1652.0   -1.28635    1.31276
 1653.0   -1.28376    1.30427
 1654.0   -1.28164    1.29578
 1655.0   -1.28022    1.28612
 1656.0   -1.27763    1.27763
 1657.0   -1.27621    1.26914
 1658.0   -1.27433    1.26112
 1659.0   -1.27220    1.25264
 1660.0   -1.27032    1.24344
 1661.0   -1.26820    1.23543
 1662.0   -1.26678    1.22694
 1663.0   -1.26419    1.21892
 1664.0   -1.26277    1.21020
 1665.0   -1.26089    1.20171
 1666.0   -1.25877    1.19369
 1667.0   -1.25617    1.18497
 1668.0   -1.25476    1.17743
 1669.0   -1.25216    1.16941
 1670.0   -1.25004    1.16069
 1671.0   -1.24816    1.15314
 1672.0   -1.24603    1.14442
 1673.0   -1.24344    1.13687
 1674.0   -1.24203    1.12886
 1675.0   -1.23943    1.12061
 1676.0   -1.23802    1.11306
 1677.0   -1.23543    1.10481
 1678.0   -1.23330    1.09727
 1679.0   -1.23071    1.09019
 1680.0   -1.22859    1.08194
 1681.0   -1.22647    1.07487
 1682.0   -1.22387    1.06662
 1683.0   -1.22246    1.05954
 1684.0   -1.22034    1.05176
 1685.0   -1.21774    1.04469
 1686.0   -1.21562    1.03691
 1687.0   -1.21350    1.02913
 1688.0   -1.21091    1.02205
 1689.0   -1.20878    1.01427
 1690.0   -1.20666    1.00767
 1691.0   -1.20454    0.99989
 1692.0   -1.20171    0.99258
 1693.0   -1.19912    0.98598
 1694.0   -1.19699    0.97867
 1695.0   -1.19417    0.97136
 1696.0   -1.19204    0.96406
 1697.0   -1.18921    0.95745
 1698.0   -1.18709    0.95015
 1699.0   -1.18426    0.94331
 1700.0   -1.18214    0.93671
 1701.0   -1.17931    0.92987
 1702.0   -1.17766    0.92303
 1703.0   -1.17483    0.91620
 1704.0   -1.17271    0.90936
 1705.0   -1.16988    0.90323
 1706.0   -1.16752    0.89639
 1707.0   -1.16540    0.88955
 1708.0   -1.16257    0.88319
 1709.0   -1.16022    0.87635
 1710.0   -1.15809    0.86998
 1711.0   -1.15574    0.86362
 1712.0   -1.15291    0.85725
 1713.0   -1.15055    0.85089
 1714.0   -1.14819    0.84523
 1715.0   -1.14536    0.83886
 1716.0   -1.14300    0.83250
 1717.0   -1.14065    0.82613
 1718.0   -1.13758    0.81953
 1719.0   -1.13522    0.81316
 1720.0   -1.13216    0.80727
 1721.0   -1.12980    0.80138
 1722.0   -1.12744    0.79548
 1723.0   -1.12438    0.78959
 1724.0   -1.12249    0.78369
 1725.0   -1.12013    0.77780
 1726.0   -1.11707    0.77190
 1727.0   -1.11448    0.76648
 1728.0   -1.11212    0.76059
 1729.0   -1.10952    0.75446
 1730.0   -1.10693    0.74856
 1731.0   -1.10387    0.74314
 1732.0   -1.10127    0.73772
 1733.0   -1.09868    0.73230
 1734.0   -1.09679    0.72617
 1735.0   -1.09420    0.72074
 1736.0   -1.09161    0.71579
 1737.0   -1.08831    0.71037
 1738.0   -1.08571    0.70495
