   W         E0+(pi+_n)
 (MeV)      Re         Im
 1080.0   28.371001  -0.077039
 1081.0   28.150772  -0.050215
 1082.0   27.930543  -0.023391
 1083.0   27.710313   0.003433
 1084.0   27.490084   0.030257
 1085.0   27.269855   0.057082
 1086.0   27.061727   0.073608
 1087.0   26.853599   0.090134
 1088.0   26.645472   0.106660
 1089.0   26.437344   0.123186
 1090.0   26.229217   0.139712
 1091.0   26.032779   0.149959
 1092.0   25.836340   0.160206
 1093.0   25.639902   0.170452
 1094.0   25.443464   0.180699
 1095.0   25.247026   0.190946
 1096.0   25.061950   0.196778
 1097.0   24.876874   0.202611
 1098.0   24.691798   0.208443
 1099.0   24.506722   0.214275
 1100.0   24.321646   0.220108
 1101.0   24.147567   0.222602
 1102.0   23.973489   0.225097
 1103.0   23.799411   0.227591
 1104.0   23.625333   0.230085
 1105.0   23.451255   0.232580
 1106.0   23.287748   0.232442
 1107.0   23.124241   0.232304
 1108.0   22.960734   0.232166
 1109.0   22.797228   0.232028
 1110.0   22.633721   0.231890
 1111.0   22.480326   0.229623
 1112.0   22.326932   0.227356
 1113.0   22.173537   0.225090
 1114.0   22.020143   0.222823
 1115.0   21.866748   0.220556
 1116.0   21.722976   0.216545
 1117.0   21.579204   0.212533
 1118.0   21.435431   0.208521
 1119.0   21.291659   0.204510
 1120.0   21.147887   0.200498
 1121.0   21.013236   0.195047
 1122.0   20.878585   0.189595
 1123.0   20.743934   0.184144
 1124.0   20.609282   0.178693
 1125.0   20.474631   0.173241
 1126.0   20.348575   0.166604
 1127.0   20.222519   0.159966
 1128.0   20.096463   0.153329
 1129.0   19.970407   0.146692
 1130.0   19.844351   0.140054
 1131.0   19.726386   0.132444
 1132.0   19.608422   0.124834
 1133.0   19.490457   0.117224
 1134.0   19.372493   0.109614
 1135.0   19.254528   0.102004
 1136.0   19.144158   0.093606
 1137.0   19.033788   0.085207
 1138.0   18.923418   0.076809
 1139.0   18.813047   0.068410
 1140.0   18.702677   0.060012
 1141.0   18.599414   0.050987
 1142.0   18.496151   0.041961
 1143.0   18.392888   0.032936
 1144.0   18.289625   0.023911
 1145.0   18.186362   0.014885
 1146.0   18.089745   0.005375
 1147.0   17.993128  -0.004136
 1148.0   17.896511  -0.013646
 1149.0   17.799894  -0.023157
 1150.0   17.703277  -0.032667
 1151.0   17.612868  -0.042538
 1152.0   17.522459  -0.052408
 1153.0   17.432050  -0.062279
 1154.0   17.341641  -0.072149
 1155.0   17.251232  -0.082020
 1156.0   17.166614  -0.092138
 1157.0   17.081996  -0.102256
 1158.0   16.997378  -0.112374
 1159.0   16.912760  -0.122492
 1160.0   16.828142  -0.132611
 1161.0   16.748924  -0.142877
 1162.0   16.669707  -0.153143
 1163.0   16.590489  -0.163409
 1164.0   16.511271  -0.173676
 1165.0   16.432053  -0.183942
 1166.0   16.357870  -0.194267
 1167.0   16.283686  -0.204593
 1168.0   16.209503  -0.214918
 1169.0   16.135320  -0.225243
 1170.0   16.061136  -0.235569
 1171.0   15.991644  -0.245873
 1172.0   15.922153  -0.256178
 1173.0   15.852661  -0.266483
 1174.0   15.783169  -0.276787
 1175.0   15.713677  -0.287092
 1176.0   15.648556  -0.297304
 1177.0   15.583434  -0.307517
 1178.0   15.518313  -0.317729
 1179.0   15.453192  -0.327942
 1180.0   15.388070  -0.338154
 1181.0   15.327024  -0.348211
 1182.0   15.265978  -0.358267
 1183.0   15.204933  -0.368324
 1184.0   15.143887  -0.378381
 1185.0   15.082841  -0.388437
 1186.0   15.025593  -0.398281
 1187.0   14.968345  -0.408125
 1188.0   14.911098  -0.417968
 1189.0   14.853850  -0.427812
 1190.0   14.796602  -0.437656
 1191.0   14.742894  -0.447236
 1192.0   14.689185  -0.456816
 1193.0   14.635477  -0.466395
 1194.0   14.581768  -0.475975
 1195.0   14.528059  -0.485555
 1196.0   14.477654  -0.494826
 1197.0   14.427248  -0.504097
 1198.0   14.376843  -0.513367
 1199.0   14.326437  -0.522638
 1200.0   14.276032  -0.531909
 1201.0   14.228707  -0.540830
 1202.0   14.181382  -0.549751
 1203.0   14.134057  -0.558672
 1204.0   14.086732  -0.567593
 1205.0   14.039408  -0.576515
 1206.0   13.994957  -0.585050
 1207.0   13.950506  -0.593586
 1208.0   13.906055  -0.602122
 1209.0   13.861604  -0.610657
 1210.0   13.817153  -0.619193
 1211.0   13.775384  -0.627313
 1212.0   13.733615  -0.635434
 1213.0   13.691846  -0.643554
 1214.0   13.650077  -0.651675
 1215.0   13.608308  -0.659795
 1216.0   13.569040  -0.667472
 1217.0   13.529771  -0.675148
 1218.0   13.490502  -0.682825
 1219.0   13.451233  -0.690502
 1220.0   13.411965  -0.698178
 1221.0   13.375034  -0.705386
 1222.0   13.338103  -0.712593
 1223.0   13.301172  -0.719800
 1224.0   13.264241  -0.727007
 1225.0   13.227310  -0.734215
 1226.0   13.192567  -0.740930
 1227.0   13.157823  -0.747646
 1228.0   13.123080  -0.754361
 1229.0   13.088336  -0.761077
 1230.0   13.053593  -0.767792
 1231.0   13.020893  -0.773997
 1232.0   12.988193  -0.780201
 1233.0   12.955494  -0.786405
 1234.0   12.922794  -0.792610
 1235.0   12.890094  -0.798814
 1236.0   12.859311  -0.804490
 1237.0   12.828527  -0.810166
 1238.0   12.797744  -0.815842
 1239.0   12.766961  -0.821518
 1240.0   12.736177  -0.827195
 1241.0   12.707186  -0.832328
 1242.0   12.678195  -0.837462
 1243.0   12.649204  -0.842596
 1244.0   12.620213  -0.847729
 1245.0   12.591222  -0.852863
 1246.0   12.563913  -0.857442
 1247.0   12.536603  -0.862020
 1248.0   12.509294  -0.866599
 1249.0   12.481984  -0.871177
 1250.0   12.454675  -0.875756
 1251.0   12.428944  -0.879769
 1252.0   12.403212  -0.883781
 1253.0   12.377481  -0.887794
 1254.0   12.351750  -0.891807
 1255.0   12.326018  -0.895820
 1256.0   12.301767  -0.899258
 1257.0   12.277516  -0.902697
 1258.0   12.253266  -0.906135
 1259.0   12.229015  -0.909574
 1260.0   12.204764  -0.913012
 1261.0   12.181905  -0.915869
 1262.0   12.159047  -0.918725
 1263.0   12.136189  -0.921582
 1264.0   12.113330  -0.924438
 1265.0   12.090472  -0.927295
 1266.0   12.068924  -0.929563
 1267.0   12.047376  -0.931832
 1268.0   12.025829  -0.934101
 1269.0   12.004281  -0.936370
 1270.0   11.982733  -0.938638
 1271.0   11.962416  -0.940311
 1272.0   11.942099  -0.941984
 1273.0   11.921782  -0.943657
 1274.0   11.901465  -0.945330
 1275.0   11.881148  -0.947003
 1276.0   11.861994  -0.948078
 1277.0   11.842840  -0.949154
 1278.0   11.823686  -0.950229
 1279.0   11.804532  -0.951304
 1280.0   11.785378  -0.952379
 1281.0   11.767326  -0.952854
 1282.0   11.749274  -0.953330
 1283.0   11.731223  -0.953806
 1284.0   11.713171  -0.954282
 1285.0   11.695119  -0.954758
 1286.0   11.678100  -0.954625
 1287.0   11.661080  -0.954492
 1288.0   11.644061  -0.954360
 1289.0   11.627042  -0.954227
 1290.0   11.610022  -0.954094
 1291.0   11.593992  -0.953358
 1292.0   11.577962  -0.952622
 1293.0   11.561932  -0.951886
 1294.0   11.545902  -0.951150
 1295.0   11.529871  -0.950414
 1296.0   11.514772  -0.949066
 1297.0   11.499673  -0.947719
 1298.0   11.484574  -0.946371
 1299.0   11.469474  -0.945023
 1300.0   11.454375  -0.943676
 1301.0   11.440158  -0.941711
 1302.0   11.425940  -0.939746
 1303.0   11.411723  -0.937781
 1304.0   11.397506  -0.935816
 1305.0   11.383288  -0.933852
 1306.0   11.369920  -0.931276
 1307.0   11.356551  -0.928700
 1308.0   11.343183  -0.926124
 1309.0   11.329814  -0.923548
 1310.0   11.316446  -0.920972
 1311.0   11.303880  -0.917775
 1312.0   11.291315  -0.914577
 1313.0   11.278750  -0.911380
 1314.0   11.266184  -0.908183
 1315.0   11.253619  -0.904985
 1316.0   11.241823  -0.901164
 1317.0   11.230027  -0.897343
 1318.0   11.218231  -0.893522
 1319.0   11.206435  -0.889700
 1320.0   11.194639  -0.885879
 1321.0   11.183573  -0.881424
 1322.0   11.172506  -0.876970
 1323.0   11.161440  -0.872515
 1324.0   11.150374  -0.868061
 1325.0   11.139308  -0.863606
 1326.0   11.128959  -0.858523
 1327.0   11.118610  -0.853440
 1328.0   11.108261  -0.848357
 1329.0   11.097912  -0.843275
 1330.0   11.087564  -0.838192
 1331.0   11.077892  -0.832464
 1332.0   11.068221  -0.826737
 1333.0   11.058550  -0.821009
 1334.0   11.048879  -0.815281
 1335.0   11.039207  -0.809554
 1336.0   11.030193  -0.803174
 1337.0   11.021179  -0.796795
 1338.0   11.012165  -0.790416
 1339.0   11.003151  -0.784037
 1340.0   10.994136  -0.777657
 1341.0   10.985759  -0.770616
 1342.0   10.977381  -0.763574
 1343.0   10.969004  -0.756533
 1344.0   10.960626  -0.749491
 1345.0   10.952248  -0.742450
 1346.0   10.944491  -0.734736
 1347.0   10.936733  -0.727022
 1348.0   10.928975  -0.719307
 1349.0   10.921217  -0.711593
 1350.0   10.913459  -0.703879
 1351.0   10.906294  -0.695465
 1352.0   10.899128  -0.687052
 1353.0   10.891963  -0.678638
 1354.0   10.884797  -0.670224
 1355.0   10.877632  -0.661810
 1356.0   10.871060  -0.652691
 1357.0   10.864487  -0.643572
 1358.0   10.857915  -0.634454
 1359.0   10.851342  -0.625335
 1360.0   10.844770  -0.616216
 1361.0   10.838771  -0.606364
 1362.0   10.832773  -0.596512
 1363.0   10.826774  -0.586660
 1364.0   10.820776  -0.576808
 1365.0   10.814777  -0.566956
 1366.0   10.809344  -0.556344
 1367.0   10.803911  -0.545732
 1368.0   10.798478  -0.535120
 1369.0   10.793044  -0.524508
 1370.0   10.787611  -0.513896
 1371.0   10.782735  -0.502493
 1372.0   10.777859  -0.491090
 1373.0   10.772983  -0.479687
 1374.0   10.768107  -0.468284
 1375.0   10.763231  -0.456881
 1376.0   10.758908  -0.444649
 1377.0   10.754584  -0.432417
 1378.0   10.750261  -0.420186
 1379.0   10.745937  -0.407954
 1380.0   10.741614  -0.395722
 1381.0   10.737840  -0.382619
 1382.0   10.734066  -0.369517
 1383.0   10.730292  -0.356414
 1384.0   10.726518  -0.343311
 1385.0   10.722744  -0.330208
 1386.0   10.719512  -0.316178
 1387.0   10.716280  -0.302148
 1388.0   10.713049  -0.288118
 1389.0   10.709817  -0.274088
 1390.0   10.706585  -0.260058
 1391.0   10.703907  -0.245048
 1392.0   10.701229  -0.230038
 1393.0   10.698551  -0.215028
 1394.0   10.695874  -0.200018
 1395.0   10.693196  -0.185008
 1396.0   10.691069  -0.168943
 1397.0   10.688942  -0.152877
 1398.0   10.686815  -0.136812
 1399.0   10.684687  -0.120746
 1400.0   10.682560  -0.104681
 1401.0   10.680991  -0.087477
 1402.0   10.679422  -0.070273
 1403.0   10.677853  -0.053070
 1404.0   10.676283  -0.035866
 1405.0   10.674714  -0.018662
 1406.0   10.673710  -0.000221
 1407.0   10.672706   0.018220
 1408.0   10.671702   0.036660
 1409.0   10.670698   0.055101
 1410.0   10.669694   0.073542
 1411.0   10.669266   0.093337
 1412.0   10.668838   0.113132
 1413.0   10.668410   0.132927
 1414.0   10.667981   0.152723
 1415.0   10.667553   0.172518
 1416.0   10.667714   0.193807
 1417.0   10.667875   0.215097
 1418.0   10.668036   0.236386
 1419.0   10.668196   0.257676
 1420.0   10.668357   0.278966
 1421.0   10.669122   0.301918
 1422.0   10.669886   0.324871
 1423.0   10.670651   0.347823
 1424.0   10.671416   0.370776
 1425.0   10.672181   0.393728
 1426.0   10.673568   0.418549
 1427.0   10.674955   0.443369
 1428.0   10.676343   0.468190
 1429.0   10.677730   0.493010
 1430.0   10.679118   0.517831
 1431.0   10.681152   0.544770
 1432.0   10.683185   0.571709
 1433.0   10.685219   0.598649
 1434.0   10.687253   0.625588
 1435.0   10.689287   0.652528
 1436.0   10.691984   0.681907
 1437.0   10.694680   0.711287
 1438.0   10.697377   0.740667
 1439.0   10.700074   0.770047
 1440.0   10.702771   0.799427
 1441.0   10.706173   0.831638
 1442.0   10.709575   0.863849
 1443.0   10.712976   0.896060
 1444.0   10.716378   0.928271
 1445.0   10.719780   0.960482
 1446.0   10.723917   0.996051
 1447.0   10.728055   1.031619
 1448.0   10.732192   1.067188
 1449.0   10.736329   1.102757
 1450.0   10.740467   1.138326
 1451.0   10.745385   1.177952
 1452.0   10.750304   1.217579
 1453.0   10.755222   1.257205
 1454.0   10.760140   1.296831
 1455.0   10.765059   1.336457
 1456.0   10.770819   1.381120
 1457.0   10.776579   1.425784
 1458.0   10.782339   1.470447
 1459.0   10.788099   1.515110
 1460.0   10.793860   1.559773
 1461.0   10.800548   1.610915
 1462.0   10.807237   1.662056
 1463.0   10.813926   1.713198
 1464.0   10.820615   1.764340
 1465.0   10.827304   1.815482
 1466.0   10.835073   1.875421
 1467.0   10.842843   1.935359
 1468.0   10.850612   1.995297
 1469.0   10.858382   2.055236
 1470.0   10.866151   2.115174
 1471.0   10.875314   2.188108
 1472.0   10.884476   2.261042
 1473.0   10.893639   2.333976
 1474.0   10.902802   2.406910
 1475.0   10.911965   2.479843
 1476.0   10.923458   2.575506
 1477.0   10.934951   2.671169
 1478.0   10.946444   2.766831
 1479.0   10.957937   2.862494
 1480.0   10.969430   2.958157
 1481.0   10.990471   3.126213
 1482.0   11.011513   3.294269
 1483.0   11.032554   3.462325
 1484.0   11.053596   3.630382
 1485.0   11.074638   3.798438
 1486.0   10.874880   3.953766
 1487.0   10.675122   4.109094
 1488.0   10.475364   4.264422
 1489.0   10.275606   4.419751
 1490.0   10.075849   4.575079
 1491.0    9.940152   4.631316
 1492.0    9.804456   4.687553
 1493.0    9.668760   4.743790
 1494.0    9.533064   4.800028
 1495.0    9.397368   4.856265
 1496.0    9.271517   4.892155
 1497.0    9.145667   4.928045
 1498.0    9.019817   4.963935
 1499.0    8.893967   4.999826
 1500.0    8.768117   5.035716
 1501.0    8.647425   5.052750
 1502.0    8.526733   5.069785
 1503.0    8.406041   5.086820
 1504.0    8.285349   5.103854
 1505.0    8.164657   5.120889
 1506.0    8.050225   5.120163
 1507.0    7.935793   5.119436
 1508.0    7.821360   5.118710
 1509.0    7.706928   5.117984
 1510.0    7.592496   5.117257
 1511.0    7.486866   5.100476
 1512.0    7.381236   5.083695
 1513.0    7.275606   5.066914
 1514.0    7.169976   5.050132
 1515.0    7.064346   5.033351
 1516.0    6.969967   5.003110
 1517.0    6.875588   4.972869
 1518.0    6.781208   4.942627
 1519.0    6.686829   4.912386
 1520.0    6.592449   4.882145
 1521.0    6.511182   4.841624
 1522.0    6.429914   4.801103
 1523.0    6.348647   4.760583
 1524.0    6.267379   4.720062
 1525.0    6.186111   4.679541
 1526.0    6.118966   4.632202
 1527.0    6.051820   4.584864
 1528.0    5.984675   4.537525
 1529.0    5.917530   4.490186
 1530.0    5.850384   4.442847
 1531.0    5.797483   4.392091
 1532.0    5.744582   4.341334
 1533.0    5.691681   4.290577
 1534.0    5.638779   4.239821
 1535.0    5.585878   4.189064
 1536.0    5.546590   4.137989
 1537.0    5.507302   4.086913
 1538.0    5.468014   4.035838
 1539.0    5.428726   3.984763
 1540.0    5.389439   3.933687
 1541.0    5.362553   3.884925
 1542.0    5.335667   3.836163
 1543.0    5.308781   3.787402
 1544.0    5.281895   3.738640
 1545.0    5.255009   3.689878
 1546.0    5.238932   3.645535
 1547.0    5.222856   3.601193
 1548.0    5.206779   3.556850
 1549.0    5.190703   3.512508
 1550.0    5.174626   3.468165
 1551.0    5.167550   3.429825
 1552.0    5.160475   3.391486
 1553.0    5.153399   3.353146
 1554.0    5.146323   3.314806
 1555.0    5.139247   3.276467
 1556.0    5.139264   3.245223
 1557.0    5.139280   3.213978
 1558.0    5.139297   3.182734
 1559.0    5.139313   3.151490
 1560.0    5.139330   3.120246
 1561.0    5.144532   3.096766
 1562.0    5.149735   3.073287
 1563.0    5.154937   3.049807
 1564.0    5.160140   3.026327
 1565.0    5.165342   3.002848
 1566.0    5.173896   2.987398
 1567.0    5.182449   2.971948
 1568.0    5.191002   2.956498
 1569.0    5.199556   2.941048
 1570.0    5.208109   2.925598
 1571.0    5.218278   2.918128
 1572.0    5.228447   2.910659
 1573.0    5.238616   2.903189
 1574.0    5.248785   2.895720
 1575.0    5.258953   2.888251
 1576.0    5.269164   2.888412
 1577.0    5.279374   2.888573
 1578.0    5.289584   2.888734
 1579.0    5.299794   2.888895
 1580.0    5.310005   2.889056
 1581.0    5.318878   2.896262
 1582.0    5.327751   2.903468
 1583.0    5.336624   2.910674
 1584.0    5.345497   2.917880
 1585.0    5.354370   2.925086
 1586.0    5.360748   2.938575
 1587.0    5.367127   2.952064
 1588.0    5.373506   2.965553
 1589.0    5.379885   2.979042
 1590.0    5.386264   2.992531
 1591.0    5.389215   3.011442
 1592.0    5.392165   3.030354
 1593.0    5.395116   3.049265
 1594.0    5.398066   3.068176
 1595.0    5.401017   3.087087
 1596.0    5.399766   3.110526
 1597.0    5.398514   3.133965
 1598.0    5.397263   3.157404
 1599.0    5.396011   3.180843
 1600.0    5.394760   3.204282
 1601.0    5.388480   3.231322
 1602.0    5.382201   3.258362
 1603.0    5.375921   3.285403
 1604.0    5.369642   3.312443
 1605.0    5.363362   3.339483
 1606.0    5.350914   3.366279
 1607.0    5.338465   3.393074
 1608.0    5.326017   3.419869
 1609.0    5.313568   3.446664
 1610.0    5.301120   3.473460
 1611.0    5.287493   3.503892
 1612.0    5.273867   3.534325
 1613.0    5.260241   3.564758
 1614.0    5.246615   3.595190
 1615.0    5.232989   3.625623
 1616.0    5.212579   3.658065
 1617.0    5.192170   3.690508
 1618.0    5.171760   3.722951
 1619.0    5.151351   3.755393
 1620.0    5.130941   3.787836
 1621.0    5.104510   3.820999
 1622.0    5.078078   3.854163
 1623.0    5.051647   3.887326
 1624.0    5.025216   3.920489
 1625.0    4.998784   3.953653
 1626.0    4.966047   3.986584
 1627.0    4.933310   4.019515
 1628.0    4.900573   4.052446
 1629.0    4.867836   4.085377
 1630.0    4.835098   4.118308
 1631.0    4.795745   4.149716
 1632.0    4.756392   4.181125
 1633.0    4.717038   4.212534
 1634.0    4.677685   4.243942
 1635.0    4.638331   4.275351
 1636.0    4.592374   4.303604
 1637.0    4.546417   4.331857
 1638.0    4.500460   4.360110
 1639.0    4.454503   4.388363
 1640.0    4.408546   4.416616
 1641.0    4.356577   4.439915
 1642.0    4.304607   4.463215
 1643.0    4.252638   4.486514
 1644.0    4.200668   4.509814
 1645.0    4.148699   4.533113
 1646.0    4.092021   4.549745
 1647.0    4.035344   4.566377
 1648.0    3.978667   4.583009
 1649.0    3.921989   4.599641
 1650.0    3.865312   4.616272
 1651.0    3.805676   4.625286
 1652.0    3.746040   4.634299
 1653.0    3.686405   4.643312
 1654.0    3.626769   4.652325
 1655.0    3.567133   4.661338
 1656.0    3.506798   4.662157
 1657.0    3.446464   4.662976
 1658.0    3.386129   4.663795
 1659.0    3.325795   4.664614
 1660.0    3.265460   4.665434
 1661.0    3.206534   4.658512
 1662.0    3.147608   4.651590
 1663.0    3.088682   4.644668
 1664.0    3.029756   4.637747
 1665.0    2.970830   4.630825
 1666.0    2.915029   4.617345
 1667.0    2.859229   4.603864
 1668.0    2.803428   4.590384
 1669.0    2.747628   4.576904
 1670.0    2.691827   4.563424
 1671.0    2.640210   4.545187
 1672.0    2.588593   4.526951
 1673.0    2.536975   4.508715
 1674.0    2.485358   4.490478
 1675.0    2.433741   4.472242
 1676.0    2.386251   4.452124
 1677.0    2.338762   4.432007
 1678.0    2.291272   4.411889
 1679.0    2.243782   4.391772
 1680.0    2.196292   4.371654
 1681.0    2.140663   4.347300
 1682.0    2.085034   4.322946
 1683.0    2.029405   4.298592
 1684.0    1.973775   4.274238
 1685.0    1.918146   4.249884
 1686.0    1.879130   4.212532
 1687.0    1.840113   4.175179
 1688.0    1.801097   4.137826
 1689.0    1.762080   4.100474
 1690.0    1.723064   4.063121
 1691.0    1.692615   4.028322
 1692.0    1.662166   3.993522
 1693.0    1.631717   3.958723
 1694.0    1.601269   3.923923
 1695.0    1.570820   3.889124
 1696.0    1.545897   3.856021
 1697.0    1.520974   3.822918
 1698.0    1.496051   3.789815
 1699.0    1.471128   3.756713
 1700.0    1.446205   3.723610
 1701.0    1.425563   3.692192
 1702.0    1.404921   3.660773
 1703.0    1.384278   3.629355
 1704.0    1.363636   3.597937
 1705.0    1.342993   3.566518
 1706.0    1.325802   3.536860
 1707.0    1.308611   3.507202
 1708.0    1.291419   3.477544
 1709.0    1.274228   3.447885
 1710.0    1.257036   3.418227
 1711.0    1.242661   3.390386
 1712.0    1.228286   3.362546
 1713.0    1.213911   3.334705
 1714.0    1.199536   3.306864
 1715.0    1.185161   3.279023
 1716.0    1.173071   3.253026
 1717.0    1.160981   3.227028
 1718.0    1.148891   3.201031
 1719.0    1.136801   3.175034
 1720.0    1.124711   3.149037
 1721.0    1.114460   3.124874
 1722.0    1.104210   3.100712
