   W         E2+(pi+_n)
 (MeV)      Re         Im
 1080.0    0.015352  -0.000828
 1081.0    0.031975  -0.001722
 1082.0    0.048598  -0.002616
 1083.0    0.065221  -0.003510
 1084.0    0.081844  -0.004404
 1085.0    0.098467  -0.005298
 1086.0    0.113331  -0.006091
 1087.0    0.128195  -0.006885
 1088.0    0.143059  -0.007679
 1089.0    0.157923  -0.008473
 1090.0    0.172788  -0.009267
 1091.0    0.186100  -0.009972
 1092.0    0.199413  -0.010677
 1093.0    0.212726  -0.011382
 1094.0    0.226039  -0.012087
 1095.0    0.239352  -0.012792
 1096.0    0.251292  -0.013417
 1097.0    0.263233  -0.014043
 1098.0    0.275173  -0.014668
 1099.0    0.287113  -0.015293
 1100.0    0.299054  -0.015919
 1101.0    0.309777  -0.016472
 1102.0    0.320500  -0.017026
 1103.0    0.331222  -0.017580
 1104.0    0.341945  -0.018133
 1105.0    0.352668  -0.018687
 1106.0    0.362308  -0.019176
 1107.0    0.371949  -0.019665
 1108.0    0.381589  -0.020154
 1109.0    0.391229  -0.020643
 1110.0    0.400869  -0.021133
 1111.0    0.409544  -0.021563
 1112.0    0.418219  -0.021994
 1113.0    0.426894  -0.022424
 1114.0    0.435568  -0.022855
 1115.0    0.444243  -0.023286
 1116.0    0.452055  -0.023663
 1117.0    0.459867  -0.024041
 1118.0    0.467679  -0.024418
 1119.0    0.475491  -0.024795
 1120.0    0.483303  -0.025173
 1121.0    0.490343  -0.025502
 1122.0    0.497382  -0.025831
 1123.0    0.504422  -0.026160
 1124.0    0.511461  -0.026489
 1125.0    0.518501  -0.026818
 1126.0    0.524847  -0.027102
 1127.0    0.531193  -0.027387
 1128.0    0.537539  -0.027671
 1129.0    0.543886  -0.027956
 1130.0    0.550232  -0.028240
 1131.0    0.555955  -0.028484
 1132.0    0.561678  -0.028728
 1133.0    0.567401  -0.028971
 1134.0    0.573123  -0.029215
 1135.0    0.578846  -0.029459
 1136.0    0.584008  -0.029665
 1137.0    0.589169  -0.029871
 1138.0    0.594331  -0.030077
 1139.0    0.599492  -0.030284
 1140.0    0.604654  -0.030490
 1141.0    0.609309  -0.030661
 1142.0    0.613964  -0.030833
 1143.0    0.618619  -0.031004
 1144.0    0.623274  -0.031176
 1145.0    0.627929  -0.031347
 1146.0    0.632126  -0.031487
 1147.0    0.636324  -0.031626
 1148.0    0.640521  -0.031765
 1149.0    0.644718  -0.031905
 1150.0    0.648916  -0.032044
 1151.0    0.652699  -0.032154
 1152.0    0.656482  -0.032263
 1153.0    0.660265  -0.032373
 1154.0    0.664048  -0.032482
 1155.0    0.667831  -0.032592
 1156.0    0.671239  -0.032674
 1157.0    0.674646  -0.032756
 1158.0    0.678054  -0.032838
 1159.0    0.681461  -0.032920
 1160.0    0.684869  -0.033002
 1161.0    0.687936  -0.033058
 1162.0    0.691002  -0.033114
 1163.0    0.694069  -0.033170
 1164.0    0.697136  -0.033226
 1165.0    0.700203  -0.033282
 1166.0    0.702960  -0.033314
 1167.0    0.705717  -0.033346
 1168.0    0.708474  -0.033378
 1169.0    0.711231  -0.033410
 1170.0    0.713988  -0.033442
 1171.0    0.716464  -0.033452
 1172.0    0.718939  -0.033461
 1173.0    0.721414  -0.033471
 1174.0    0.723889  -0.033480
 1175.0    0.726365  -0.033490
 1176.0    0.728583  -0.033478
 1177.0    0.730802  -0.033467
 1178.0    0.733021  -0.033455
 1179.0    0.735239  -0.033444
 1180.0    0.737458  -0.033432
 1181.0    0.739442  -0.033401
 1182.0    0.741427  -0.033370
 1183.0    0.743411  -0.033339
 1184.0    0.745395  -0.033308
 1185.0    0.747380  -0.033277
 1186.0    0.749151  -0.033227
 1187.0    0.750921  -0.033178
 1188.0    0.752692  -0.033128
 1189.0    0.754463  -0.033079
 1190.0    0.756233  -0.033029
 1191.0    0.757809  -0.032962
 1192.0    0.759384  -0.032896
 1193.0    0.760960  -0.032829
 1194.0    0.762535  -0.032762
 1195.0    0.764110  -0.032695
 1196.0    0.765507  -0.032612
 1197.0    0.766904  -0.032530
 1198.0    0.768300  -0.032447
 1199.0    0.769697  -0.032364
 1200.0    0.771094  -0.032281
 1201.0    0.772327  -0.032183
 1202.0    0.773560  -0.032085
 1203.0    0.774793  -0.031987
 1204.0    0.776026  -0.031889
 1205.0    0.777259  -0.031791
 1206.0    0.778343  -0.031679
 1207.0    0.779426  -0.031567
 1208.0    0.780509  -0.031455
 1209.0    0.781592  -0.031343
 1210.0    0.782675  -0.031231
 1211.0    0.783621  -0.031106
 1212.0    0.784567  -0.030981
 1213.0    0.785513  -0.030856
 1214.0    0.786459  -0.030731
 1215.0    0.787405  -0.030606
 1216.0    0.788224  -0.030468
 1217.0    0.789044  -0.030331
 1218.0    0.789864  -0.030193
 1219.0    0.790683  -0.030056
 1220.0    0.791503  -0.029918
 1221.0    0.792207  -0.029770
 1222.0    0.792911  -0.029621
 1223.0    0.793615  -0.029472
 1224.0    0.794319  -0.029323
 1225.0    0.795022  -0.029174
 1226.0    0.795620  -0.029015
 1227.0    0.796217  -0.028855
 1228.0    0.796815  -0.028696
 1229.0    0.797412  -0.028537
 1230.0    0.798010  -0.028377
 1231.0    0.798510  -0.028208
 1232.0    0.799009  -0.028039
 1233.0    0.799509  -0.027869
 1234.0    0.800009  -0.027700
 1235.0    0.800509  -0.027531
 1236.0    0.800918  -0.027352
 1237.0    0.801328  -0.027174
 1238.0    0.801738  -0.026996
 1239.0    0.802148  -0.026817
 1240.0    0.802558  -0.026639
 1241.0    0.802885  -0.026452
 1242.0    0.803212  -0.026265
 1243.0    0.803539  -0.026078
 1244.0    0.803866  -0.025892
 1245.0    0.804193  -0.025705
 1246.0    0.804444  -0.025510
 1247.0    0.804695  -0.025316
 1248.0    0.804946  -0.025121
 1249.0    0.805197  -0.024927
 1250.0    0.805448  -0.024732
 1251.0    0.805629  -0.024531
 1252.0    0.805810  -0.024329
 1253.0    0.805991  -0.024128
 1254.0    0.806172  -0.023926
 1255.0    0.806353  -0.023724
 1256.0    0.806470  -0.023516
 1257.0    0.806586  -0.023308
 1258.0    0.806703  -0.023100
 1259.0    0.806820  -0.022892
 1260.0    0.806936  -0.022684
 1261.0    0.806993  -0.022470
 1262.0    0.807051  -0.022257
 1263.0    0.807108  -0.022043
 1264.0    0.807165  -0.021829
 1265.0    0.807223  -0.021615
 1266.0    0.807226  -0.021396
 1267.0    0.807229  -0.021177
 1268.0    0.807231  -0.020958
 1269.0    0.807234  -0.020739
 1270.0    0.807237  -0.020520
 1271.0    0.807189  -0.020295
 1272.0    0.807141  -0.020071
 1273.0    0.807093  -0.019847
 1274.0    0.807045  -0.019622
 1275.0    0.806997  -0.019398
 1276.0    0.806903  -0.019169
 1277.0    0.806809  -0.018941
 1278.0    0.806715  -0.018712
 1279.0    0.806621  -0.018484
 1280.0    0.806527  -0.018255
 1281.0    0.806391  -0.018023
 1282.0    0.806256  -0.017791
 1283.0    0.806120  -0.017559
 1284.0    0.805984  -0.017327
 1285.0    0.805848  -0.017095
 1286.0    0.805673  -0.016860
 1287.0    0.805497  -0.016624
 1288.0    0.805322  -0.016388
 1289.0    0.805147  -0.016153
 1290.0    0.804972  -0.015917
 1291.0    0.804761  -0.015679
 1292.0    0.804550  -0.015440
 1293.0    0.804340  -0.015202
 1294.0    0.804129  -0.014964
 1295.0    0.803919  -0.014725
 1296.0    0.803675  -0.014484
 1297.0    0.803432  -0.014243
 1298.0    0.803188  -0.014002
 1299.0    0.802945  -0.013761
 1300.0    0.802701  -0.013520
 1301.0    0.802428  -0.013277
 1302.0    0.802155  -0.013034
 1303.0    0.801881  -0.012791
 1304.0    0.801608  -0.012547
 1305.0    0.801335  -0.012304
 1306.0    0.801034  -0.012059
 1307.0    0.800733  -0.011814
 1308.0    0.800432  -0.011569
 1309.0    0.800131  -0.011324
 1310.0    0.799831  -0.011078
 1311.0    0.799505  -0.010832
 1312.0    0.799179  -0.010585
 1313.0    0.798853  -0.010338
 1314.0    0.798528  -0.010091
 1315.0    0.798202  -0.009845
 1316.0    0.797854  -0.009596
 1317.0    0.797505  -0.009348
 1318.0    0.797157  -0.009100
 1319.0    0.796808  -0.008852
 1320.0    0.796460  -0.008604
 1321.0    0.796092  -0.008355
 1322.0    0.795723  -0.008107
 1323.0    0.795355  -0.007858
 1324.0    0.794987  -0.007609
 1325.0    0.794618  -0.007360
 1326.0    0.794231  -0.007110
 1327.0    0.793843  -0.006860
 1328.0    0.793455  -0.006609
 1329.0    0.793067  -0.006359
 1330.0    0.792679  -0.006108
 1331.0    0.792275  -0.005858
 1332.0    0.791871  -0.005607
 1333.0    0.791467  -0.005356
 1334.0    0.791063  -0.005105
 1335.0    0.790658  -0.004854
 1336.0    0.790239  -0.004603
 1337.0    0.789820  -0.004351
 1338.0    0.789401  -0.004100
 1339.0    0.788982  -0.003848
 1340.0    0.788563  -0.003597
 1341.0    0.788130  -0.003345
 1342.0    0.787698  -0.003093
 1343.0    0.787265  -0.002841
 1344.0    0.786833  -0.002589
 1345.0    0.786400  -0.002337
 1346.0    0.785956  -0.002084
 1347.0    0.785511  -0.001831
 1348.0    0.785066  -0.001579
 1349.0    0.784621  -0.001326
 1350.0    0.784176  -0.001073
 1351.0    0.783723  -0.000821
 1352.0    0.783269  -0.000569
 1353.0    0.782815  -0.000317
 1354.0    0.782362  -0.000065
 1355.0    0.781908   0.000187
 1356.0    0.781444   0.000441
 1357.0    0.780981   0.000694
 1358.0    0.780517   0.000947
 1359.0    0.780054   0.001200
 1360.0    0.779590   0.001454
 1361.0    0.779119   0.001707
 1362.0    0.778647   0.001961
 1363.0    0.778176   0.002215
 1364.0    0.777705   0.002468
 1365.0    0.777233   0.002722
 1366.0    0.776756   0.002976
 1367.0    0.776278   0.003230
 1368.0    0.775800   0.003484
 1369.0    0.775323   0.003738
 1370.0    0.774845   0.003993
 1371.0    0.774362   0.004247
 1372.0    0.773879   0.004502
 1373.0    0.773396   0.004757
 1374.0    0.772912   0.005012
 1375.0    0.772429   0.005266
 1376.0    0.771942   0.005522
 1377.0    0.771455   0.005777
 1378.0    0.770967   0.006033
 1379.0    0.770480   0.006288
 1380.0    0.769993   0.006544
 1381.0    0.769502   0.006800
 1382.0    0.769011   0.007057
 1383.0    0.768520   0.007313
 1384.0    0.768030   0.007570
 1385.0    0.767539   0.007826
 1386.0    0.767046   0.008083
 1387.0    0.766554   0.008340
 1388.0    0.766062   0.008597
 1389.0    0.765570   0.008854
 1390.0    0.765077   0.009111
 1391.0    0.764583   0.009370
 1392.0    0.764088   0.009629
 1393.0    0.763594   0.009888
 1394.0    0.763099   0.010147
 1395.0    0.762605   0.010406
 1396.0    0.762110   0.010666
 1397.0    0.761615   0.010927
 1398.0    0.761120   0.011187
 1399.0    0.760626   0.011448
 1400.0    0.760131   0.011708
 1401.0    0.759636   0.011970
 1402.0    0.759142   0.012233
 1403.0    0.758647   0.012495
 1404.0    0.758153   0.012757
 1405.0    0.757658   0.013020
 1406.0    0.757165   0.013284
 1407.0    0.756671   0.013549
 1408.0    0.756178   0.013813
 1409.0    0.755684   0.014078
 1410.0    0.755191   0.014342
 1411.0    0.754699   0.014610
 1412.0    0.754207   0.014877
 1413.0    0.753715   0.015144
 1414.0    0.753224   0.015411
 1415.0    0.752732   0.015678
 1416.0    0.752243   0.015948
 1417.0    0.751753   0.016219
 1418.0    0.751264   0.016489
 1419.0    0.750775   0.016759
 1420.0    0.750285   0.017029
 1421.0    0.749799   0.017303
 1422.0    0.749313   0.017577
 1423.0    0.748827   0.017850
 1424.0    0.748341   0.018124
 1425.0    0.747854   0.018397
 1426.0    0.747372   0.018675
 1427.0    0.746889   0.018953
 1428.0    0.746406   0.019230
 1429.0    0.745924   0.019508
 1430.0    0.745441   0.019786
 1431.0    0.744963   0.020068
 1432.0    0.744484   0.020350
 1433.0    0.744006   0.020632
 1434.0    0.743527   0.020914
 1435.0    0.743049   0.021197
 1436.0    0.742576   0.021483
 1437.0    0.742103   0.021770
 1438.0    0.741630   0.022056
 1439.0    0.741157   0.022343
 1440.0    0.740683   0.022630
 1441.0    0.740215   0.022922
 1442.0    0.739747   0.023215
 1443.0    0.739278   0.023508
 1444.0    0.738810   0.023801
 1445.0    0.738342   0.024093
 1446.0    0.737879   0.024392
 1447.0    0.737417   0.024691
 1448.0    0.736954   0.024990
 1449.0    0.736492   0.025289
 1450.0    0.736029   0.025587
 1451.0    0.735573   0.025893
 1452.0    0.735117   0.026199
 1453.0    0.734660   0.026505
 1454.0    0.734204   0.026811
 1455.0    0.733748   0.027116
 1456.0    0.733298   0.027430
 1457.0    0.732848   0.027743
 1458.0    0.732399   0.028056
 1459.0    0.731949   0.028370
 1460.0    0.731499   0.028683
 1461.0    0.731056   0.029005
 1462.0    0.730614   0.029327
 1463.0    0.730171   0.029649
 1464.0    0.729728   0.029970
 1465.0    0.729286   0.030292
 1466.0    0.728850   0.030623
 1467.0    0.728415   0.030954
 1468.0    0.727979   0.031285
 1469.0    0.727544   0.031616
 1470.0    0.727108   0.031947
 1471.0    0.726680   0.032289
 1472.0    0.726253   0.032630
 1473.0    0.725825   0.032971
 1474.0    0.725397   0.033312
 1475.0    0.724969   0.033653
 1476.0    0.724549   0.034006
 1477.0    0.724129   0.034358
 1478.0    0.723710   0.034710
 1479.0    0.723290   0.035063
 1480.0    0.722870   0.035415
 1481.0    0.722458   0.035779
 1482.0    0.722047   0.036144
 1483.0    0.721635   0.036508
 1484.0    0.721223   0.036873
 1485.0    0.720811   0.037237
 1486.0    0.720408   0.037615
 1487.0    0.720005   0.037992
 1488.0    0.719601   0.038370
 1489.0    0.719198   0.038748
 1490.0    0.718794   0.039125
 1491.0    0.718399   0.039518
 1492.0    0.718004   0.039910
 1493.0    0.717609   0.040302
 1494.0    0.717215   0.040694
 1495.0    0.716820   0.041086
 1496.0    0.716433   0.041494
 1497.0    0.716047   0.041902
 1498.0    0.715661   0.042310
 1499.0    0.715274   0.042717
 1500.0    0.714888   0.043125
 1501.0    0.714510   0.043551
 1502.0    0.714131   0.043976
 1503.0    0.713753   0.044402
 1504.0    0.713375   0.044827
 1505.0    0.712997   0.045253
 1506.0    0.712628   0.045696
 1507.0    0.712260   0.046139
 1508.0    0.711891   0.046582
 1509.0    0.711523   0.047025
 1510.0    0.711154   0.047468
 1511.0    0.710794   0.047932
 1512.0    0.710433   0.048396
 1513.0    0.710072   0.048860
 1514.0    0.709711   0.049324
 1515.0    0.709351   0.049788
 1516.0    0.708998   0.050274
 1517.0    0.708646   0.050760
 1518.0    0.708293   0.051246
 1519.0    0.707941   0.051732
 1520.0    0.707588   0.052219
 1521.0    0.707243   0.052729
 1522.0    0.706899   0.053239
 1523.0    0.706554   0.053749
 1524.0    0.706209   0.054259
 1525.0    0.705865   0.054769
 1526.0    0.705527   0.055306
 1527.0    0.705190   0.055842
 1528.0    0.704852   0.056378
 1529.0    0.704515   0.056915
 1530.0    0.704177   0.057451
 1531.0    0.703846   0.058016
 1532.0    0.703515   0.058581
 1533.0    0.703184   0.059146
 1534.0    0.702853   0.059710
 1535.0    0.702522   0.060275
 1536.0    0.702196   0.060871
 1537.0    0.701871   0.061467
 1538.0    0.701545   0.062063
 1539.0    0.701220   0.062659
 1540.0    0.700894   0.063255
 1541.0    0.700573   0.063884
 1542.0    0.700251   0.064514
 1543.0    0.699930   0.065143
 1544.0    0.699608   0.065773
 1545.0    0.699287   0.066402
 1546.0    0.698968   0.067069
 1547.0    0.698649   0.067735
 1548.0    0.698330   0.068401
 1549.0    0.698011   0.069067
 1550.0    0.697692   0.069733
 1551.0    0.697373   0.070439
 1552.0    0.697054   0.071145
 1553.0    0.696735   0.071851
 1554.0    0.696416   0.072556
 1555.0    0.696097   0.073262
 1556.0    0.695776   0.074011
 1557.0    0.695455   0.074760
 1558.0    0.695133   0.075509
 1559.0    0.694812   0.076257
 1560.0    0.694490   0.077006
 1561.0    0.694163   0.077801
 1562.0    0.693836   0.078596
 1563.0    0.693509   0.079391
 1564.0    0.693181   0.080186
 1565.0    0.692854   0.080982
 1566.0    0.692516   0.081826
 1567.0    0.692179   0.082671
 1568.0    0.691841   0.083516
 1569.0    0.691504   0.084361
 1570.0    0.691166   0.085205
 1571.0    0.690813   0.086103
 1572.0    0.690460   0.087001
 1573.0    0.690107   0.087898
 1574.0    0.689754   0.088796
 1575.0    0.689401   0.089694
 1576.0    0.689027   0.090648
 1577.0    0.688652   0.091601
 1578.0    0.688277   0.092555
 1579.0    0.687902   0.093509
 1580.0    0.687528   0.094463
 1581.0    0.687124   0.095475
 1582.0    0.686720   0.096488
 1583.0    0.686316   0.097500
 1584.0    0.685912   0.098512
 1585.0    0.685508   0.099525
 1586.0    0.685066   0.100597
 1587.0    0.684624   0.101670
 1588.0    0.684182   0.102743
 1589.0    0.683740   0.103816
 1590.0    0.683298   0.104889
 1591.0    0.682807   0.106022
 1592.0    0.682316   0.107156
 1593.0    0.681826   0.108290
 1594.0    0.681335   0.109424
 1595.0    0.680845   0.110557
 1596.0    0.680294   0.111751
 1597.0    0.679744   0.112944
 1598.0    0.679193   0.114138
 1599.0    0.678642   0.115331
 1600.0    0.678092   0.116525
 1601.0    0.677468   0.117775
 1602.0    0.676844   0.119025
 1603.0    0.676220   0.120275
 1604.0    0.675596   0.121526
 1605.0    0.674972   0.122776
 1606.0    0.674261   0.124076
 1607.0    0.673551   0.125375
 1608.0    0.672841   0.126675
 1609.0    0.672130   0.127975
 1610.0    0.671420   0.129275
 1611.0    0.670609   0.130615
 1612.0    0.669798   0.131955
 1613.0    0.668987   0.133295
 1614.0    0.668176   0.134635
 1615.0    0.667364   0.135976
 1616.0    0.666439   0.137342
 1617.0    0.665515   0.138708
 1618.0    0.664590   0.140075
 1619.0    0.663665   0.141441
 1620.0    0.662740   0.142807
 1621.0    0.661690   0.144182
 1622.0    0.660640   0.145556
 1623.0    0.659590   0.146931
 1624.0    0.658540   0.148305
 1625.0    0.657490   0.149679
 1626.0    0.656308   0.151040
 1627.0    0.655125   0.152400
 1628.0    0.653943   0.153760
 1629.0    0.652760   0.155120
 1630.0    0.651578   0.156480
 1631.0    0.650261   0.157800
 1632.0    0.648943   0.159120
 1633.0    0.647626   0.160440
 1634.0    0.646308   0.161761
 1635.0    0.644991   0.163081
 1636.0    0.643542   0.164334
 1637.0    0.642094   0.165586
 1638.0    0.640645   0.166839
 1639.0    0.639196   0.168092
 1640.0    0.637748   0.169345
 1641.0    0.636180   0.170502
 1642.0    0.634611   0.171660
 1643.0    0.633043   0.172818
 1644.0    0.631475   0.173976
 1645.0    0.629907   0.175134
 1646.0    0.628236   0.176171
 1647.0    0.626565   0.177209
 1648.0    0.624895   0.178247
 1649.0    0.623224   0.179284
 1650.0    0.621554   0.180322
 1651.0    0.619810   0.181222
 1652.0    0.618066   0.182122
 1653.0    0.616323   0.183022
 1654.0    0.614579   0.183922
 1655.0    0.612836   0.184822
 1656.0    0.611046   0.185571
 1657.0    0.609256   0.186319
 1658.0    0.607466   0.187068
 1659.0    0.605676   0.187816
 1660.0    0.603886   0.188565
 1661.0    0.602083   0.189158
 1662.0    0.600279   0.189751
 1663.0    0.598475   0.190345
 1664.0    0.596672   0.190938
 1665.0    0.594868   0.191532
 1666.0    0.593082   0.191976
 1667.0    0.591296   0.192419
 1668.0    0.589511   0.192863
 1669.0    0.587725   0.193306
 1670.0    0.585939   0.193750
 1671.0    0.584198   0.194056
 1672.0    0.582458   0.194363
 1673.0    0.580717   0.194669
 1674.0    0.578977   0.194975
 1675.0    0.577236   0.195282
 1676.0    0.575563   0.195469
 1677.0    0.573890   0.195657
 1678.0    0.572216   0.195844
 1679.0    0.570543   0.196031
 1680.0    0.568870   0.196219
 1681.0    0.567279   0.196309
 1682.0    0.565689   0.196400
 1683.0    0.564098   0.196490
 1684.0    0.562508   0.196581
 1685.0    0.560917   0.196671
 1686.0    0.559419   0.196688
 1687.0    0.557920   0.196704
 1688.0    0.556421   0.196721
 1689.0    0.554922   0.196737
 1690.0    0.553424   0.196753
 1691.0    0.552019   0.196718
 1692.0    0.550615   0.196683
 1693.0    0.549210   0.196648
 1694.0    0.547806   0.196613
 1695.0    0.546401   0.196578
 1696.0    0.545089   0.196512
 1697.0    0.543777   0.196446
 1698.0    0.542465   0.196379
 1699.0    0.541152   0.196313
 1700.0    0.539840   0.196247
 1701.0    0.538614   0.196166
 1702.0    0.537388   0.196086
 1703.0    0.536163   0.196006
 1704.0    0.534937   0.195926
 1705.0    0.533711   0.195845
 1706.0    0.532563   0.195765
 1707.0    0.531415   0.195685
 1708.0    0.530267   0.195605
 1709.0    0.529119   0.195525
 1710.0    0.527971   0.195445
 1711.0    0.526893   0.195375
 1712.0    0.525814   0.195305
 1713.0    0.524735   0.195236
 1714.0    0.523656   0.195166
 1715.0    0.522577   0.195097
 1716.0    0.521557   0.195046
 1717.0    0.520537   0.194995
 1718.0    0.519517   0.194944
 1719.0    0.518497   0.194893
 1720.0    0.517476   0.194842
 1721.0    0.516505   0.194815
 1722.0    0.515534   0.194788
