   W         E3+(pi+_n)
 (MeV)      Re         Im
 1080.0    0.000511  -0.000028
 1081.0    0.002099  -0.000114
 1082.0    0.003686  -0.000200
 1083.0    0.005274  -0.000286
 1084.0    0.006861  -0.000372
 1085.0    0.008449  -0.000458
 1086.0    0.010752  -0.000582
 1087.0    0.013056  -0.000707
 1088.0    0.015359  -0.000832
 1089.0    0.017663  -0.000956
 1090.0    0.019966  -0.001081
 1091.0    0.022588  -0.001223
 1092.0    0.025209  -0.001364
 1093.0    0.027831  -0.001506
 1094.0    0.030453  -0.001648
 1095.0    0.033074  -0.001790
 1096.0    0.035840  -0.001939
 1097.0    0.038606  -0.002088
 1098.0    0.041372  -0.002238
 1099.0    0.044138  -0.002387
 1100.0    0.046904  -0.002536
 1101.0    0.049715  -0.002688
 1102.0    0.052526  -0.002839
 1103.0    0.055337  -0.002991
 1104.0    0.058148  -0.003143
 1105.0    0.060960  -0.003294
 1106.0    0.063755  -0.003445
 1107.0    0.066550  -0.003595
 1108.0    0.069344  -0.003745
 1109.0    0.072139  -0.003896
 1110.0    0.074934  -0.004046
 1111.0    0.077673  -0.004193
 1112.0    0.080413  -0.004341
 1113.0    0.083152  -0.004488
 1114.0    0.085891  -0.004635
 1115.0    0.088630  -0.004782
 1116.0    0.091287  -0.004924
 1117.0    0.093945  -0.005066
 1118.0    0.096602  -0.005209
 1119.0    0.099260  -0.005351
 1120.0    0.101917  -0.005494
 1121.0    0.104476  -0.005630
 1122.0    0.107036  -0.005767
 1123.0    0.109595  -0.005904
 1124.0    0.112155  -0.006040
 1125.0    0.114714  -0.006177
 1126.0    0.117166  -0.006307
 1127.0    0.119617  -0.006438
 1128.0    0.122068  -0.006568
 1129.0    0.124520  -0.006699
 1130.0    0.126971  -0.006829
 1131.0    0.129309  -0.006953
 1132.0    0.131647  -0.007077
 1133.0    0.133985  -0.007200
 1134.0    0.136322  -0.007324
 1135.0    0.138660  -0.007448
 1136.0    0.140882  -0.007565
 1137.0    0.143104  -0.007682
 1138.0    0.145326  -0.007799
 1139.0    0.147547  -0.007916
 1140.0    0.149769  -0.008034
 1141.0    0.151875  -0.008144
 1142.0    0.153980  -0.008254
 1143.0    0.156086  -0.008364
 1144.0    0.158191  -0.008475
 1145.0    0.160297  -0.008585
 1146.0    0.162287  -0.008688
 1147.0    0.164278  -0.008792
 1148.0    0.166269  -0.008896
 1149.0    0.168260  -0.008999
 1150.0    0.170250  -0.009103
 1151.0    0.172129  -0.009199
 1152.0    0.174007  -0.009296
 1153.0    0.175886  -0.009393
 1154.0    0.177764  -0.009490
 1155.0    0.179642  -0.009587
 1156.0    0.181412  -0.009677
 1157.0    0.183181  -0.009768
 1158.0    0.184950  -0.009858
 1159.0    0.186720  -0.009948
 1160.0    0.188489  -0.010039
 1161.0    0.190153  -0.010123
 1162.0    0.191817  -0.010207
 1163.0    0.193481  -0.010291
 1164.0    0.195145  -0.010375
 1165.0    0.196809  -0.010459
 1166.0    0.198372  -0.010536
 1167.0    0.199935  -0.010614
 1168.0    0.201498  -0.010692
 1169.0    0.203061  -0.010770
 1170.0    0.204624  -0.010848
 1171.0    0.206090  -0.010920
 1172.0    0.207556  -0.010991
 1173.0    0.209022  -0.011063
 1174.0    0.210488  -0.011135
 1175.0    0.211954  -0.011207
 1176.0    0.213327  -0.011273
 1177.0    0.214701  -0.011339
 1178.0    0.216074  -0.011405
 1179.0    0.217448  -0.011471
 1180.0    0.218821  -0.011537
 1181.0    0.220107  -0.011598
 1182.0    0.221392  -0.011658
 1183.0    0.222677  -0.011719
 1184.0    0.223963  -0.011779
 1185.0    0.225248  -0.011840
 1186.0    0.226449  -0.011895
 1187.0    0.227651  -0.011950
 1188.0    0.228852  -0.012005
 1189.0    0.230054  -0.012060
 1190.0    0.231255  -0.012116
 1191.0    0.232377  -0.012165
 1192.0    0.233499  -0.012215
 1193.0    0.234621  -0.012265
 1194.0    0.235743  -0.012315
 1195.0    0.236865  -0.012365
 1196.0    0.237911  -0.012410
 1197.0    0.238957  -0.012455
 1198.0    0.240004  -0.012500
 1199.0    0.241050  -0.012545
 1200.0    0.242096  -0.012590
 1201.0    0.243071  -0.012630
 1202.0    0.244046  -0.012670
 1203.0    0.245021  -0.012711
 1204.0    0.245995  -0.012751
 1205.0    0.246970  -0.012791
 1206.0    0.247877  -0.012826
 1207.0    0.248784  -0.012862
 1208.0    0.249691  -0.012897
 1209.0    0.250598  -0.012933
 1210.0    0.251505  -0.012969
 1211.0    0.252348  -0.013000
 1212.0    0.253191  -0.013031
 1213.0    0.254034  -0.013062
 1214.0    0.254876  -0.013093
 1215.0    0.255719  -0.013124
 1216.0    0.256502  -0.013151
 1217.0    0.257284  -0.013177
 1218.0    0.258066  -0.013204
 1219.0    0.258848  -0.013231
 1220.0    0.259630  -0.013258
 1221.0    0.260355  -0.013280
 1222.0    0.261080  -0.013303
 1223.0    0.261805  -0.013326
 1224.0    0.262530  -0.013348
 1225.0    0.263255  -0.013371
 1226.0    0.263926  -0.013389
 1227.0    0.264596  -0.013408
 1228.0    0.265267  -0.013427
 1229.0    0.265938  -0.013445
 1230.0    0.266608  -0.013464
 1231.0    0.267228  -0.013479
 1232.0    0.267847  -0.013494
 1233.0    0.268467  -0.013508
 1234.0    0.269086  -0.013523
 1235.0    0.269706  -0.013538
 1236.0    0.270277  -0.013549
 1237.0    0.270848  -0.013560
 1238.0    0.271420  -0.013571
 1239.0    0.271991  -0.013582
 1240.0    0.272562  -0.013593
 1241.0    0.273087  -0.013601
 1242.0    0.273613  -0.013609
 1243.0    0.274138  -0.013616
 1244.0    0.274664  -0.013624
 1245.0    0.275189  -0.013631
 1246.0    0.275672  -0.013635
 1247.0    0.276154  -0.013639
 1248.0    0.276637  -0.013643
 1249.0    0.277119  -0.013647
 1250.0    0.277602  -0.013651
 1251.0    0.278043  -0.013652
 1252.0    0.278485  -0.013653
 1253.0    0.278927  -0.013654
 1254.0    0.279368  -0.013654
 1255.0    0.279810  -0.013655
 1256.0    0.280213  -0.013653
 1257.0    0.280617  -0.013650
 1258.0    0.281020  -0.013648
 1259.0    0.281423  -0.013645
 1260.0    0.281826  -0.013643
 1261.0    0.282193  -0.013637
 1262.0    0.282560  -0.013632
 1263.0    0.282927  -0.013626
 1264.0    0.283294  -0.013621
 1265.0    0.283661  -0.013615
 1266.0    0.283994  -0.013607
 1267.0    0.284326  -0.013598
 1268.0    0.284659  -0.013590
 1269.0    0.284991  -0.013581
 1270.0    0.285324  -0.013573
 1271.0    0.285625  -0.013561
 1272.0    0.285926  -0.013550
 1273.0    0.286226  -0.013539
 1274.0    0.286527  -0.013528
 1275.0    0.286828  -0.013517
 1276.0    0.287098  -0.013503
 1277.0    0.287368  -0.013489
 1278.0    0.287637  -0.013475
 1279.0    0.287907  -0.013461
 1280.0    0.288177  -0.013447
 1281.0    0.288418  -0.013431
 1282.0    0.288659  -0.013414
 1283.0    0.288900  -0.013397
 1284.0    0.289142  -0.013381
 1285.0    0.289383  -0.013364
 1286.0    0.289596  -0.013345
 1287.0    0.289810  -0.013325
 1288.0    0.290024  -0.013306
 1289.0    0.290237  -0.013287
 1290.0    0.290451  -0.013267
 1291.0    0.290639  -0.013246
 1292.0    0.290828  -0.013224
 1293.0    0.291016  -0.013203
 1294.0    0.291204  -0.013181
 1295.0    0.291393  -0.013160
 1296.0    0.291557  -0.013136
 1297.0    0.291721  -0.013112
 1298.0    0.291885  -0.013088
 1299.0    0.292049  -0.013064
 1300.0    0.292213  -0.013041
 1301.0    0.292353  -0.013014
 1302.0    0.292494  -0.012988
 1303.0    0.292635  -0.012961
 1304.0    0.292775  -0.012935
 1305.0    0.292916  -0.012908
 1306.0    0.293036  -0.012880
 1307.0    0.293156  -0.012852
 1308.0    0.293275  -0.012824
 1309.0    0.293395  -0.012796
 1310.0    0.293515  -0.012768
 1311.0    0.293614  -0.012738
 1312.0    0.293713  -0.012708
 1313.0    0.293812  -0.012678
 1314.0    0.293911  -0.012648
 1315.0    0.294011  -0.012618
 1316.0    0.294091  -0.012586
 1317.0    0.294171  -0.012554
 1318.0    0.294251  -0.012522
 1319.0    0.294331  -0.012490
 1320.0    0.294411  -0.012457
 1321.0    0.294472  -0.012423
 1322.0    0.294533  -0.012389
 1323.0    0.294594  -0.012355
 1324.0    0.294655  -0.012320
 1325.0    0.294717  -0.012286
 1326.0    0.294762  -0.012251
 1327.0    0.294807  -0.012215
 1328.0    0.294852  -0.012180
 1329.0    0.294897  -0.012145
 1330.0    0.294942  -0.012110
 1331.0    0.294970  -0.012072
 1332.0    0.294999  -0.012035
 1333.0    0.295028  -0.011998
 1334.0    0.295056  -0.011961
 1335.0    0.295085  -0.011924
 1336.0    0.295098  -0.011885
 1337.0    0.295112  -0.011847
 1338.0    0.295125  -0.011808
 1339.0    0.295138  -0.011769
 1340.0    0.295152  -0.011731
 1341.0    0.295151  -0.011691
 1342.0    0.295150  -0.011651
 1343.0    0.295149  -0.011610
 1344.0    0.295148  -0.011570
 1345.0    0.295147  -0.011530
 1346.0    0.295133  -0.011489
 1347.0    0.295118  -0.011448
 1348.0    0.295104  -0.011407
 1349.0    0.295090  -0.011366
 1350.0    0.295075  -0.011324
 1351.0    0.295048  -0.011282
 1352.0    0.295021  -0.011239
 1353.0    0.294993  -0.011196
 1354.0    0.294966  -0.011153
 1355.0    0.294938  -0.011110
 1356.0    0.294899  -0.011067
 1357.0    0.294860  -0.011023
 1358.0    0.294821  -0.010980
 1359.0    0.294782  -0.010936
 1360.0    0.294743  -0.010892
 1361.0    0.294692  -0.010848
 1362.0    0.294642  -0.010803
 1363.0    0.294592  -0.010758
 1364.0    0.294541  -0.010714
 1365.0    0.294491  -0.010669
 1366.0    0.294430  -0.010623
 1367.0    0.294369  -0.010578
 1368.0    0.294308  -0.010532
 1369.0    0.294247  -0.010486
 1370.0    0.294187  -0.010441
 1371.0    0.294116  -0.010394
 1372.0    0.294045  -0.010348
 1373.0    0.293974  -0.010302
 1374.0    0.293903  -0.010255
 1375.0    0.293832  -0.010209
 1376.0    0.293752  -0.010161
 1377.0    0.293672  -0.010114
 1378.0    0.293592  -0.010067
 1379.0    0.293512  -0.010020
 1380.0    0.293432  -0.009973
 1381.0    0.293343  -0.009925
 1382.0    0.293254  -0.009877
 1383.0    0.293165  -0.009829
 1384.0    0.293076  -0.009781
 1385.0    0.292988  -0.009733
 1386.0    0.292891  -0.009685
 1387.0    0.292794  -0.009637
 1388.0    0.292697  -0.009588
 1389.0    0.292600  -0.009540
 1390.0    0.292503  -0.009492
 1391.0    0.292399  -0.009443
 1392.0    0.292294  -0.009394
 1393.0    0.292189  -0.009345
 1394.0    0.292085  -0.009296
 1395.0    0.291980  -0.009247
 1396.0    0.291869  -0.009198
 1397.0    0.291757  -0.009148
 1398.0    0.291645  -0.009099
 1399.0    0.291534  -0.009050
 1400.0    0.291422  -0.009000
 1401.0    0.291304  -0.008951
 1402.0    0.291185  -0.008901
 1403.0    0.291067  -0.008851
 1404.0    0.290949  -0.008802
 1405.0    0.290831  -0.008752
 1406.0    0.290706  -0.008702
 1407.0    0.290582  -0.008652
 1408.0    0.290458  -0.008602
 1409.0    0.290333  -0.008552
 1410.0    0.290209  -0.008502
 1411.0    0.290079  -0.008452
 1412.0    0.289949  -0.008402
 1413.0    0.289819  -0.008352
 1414.0    0.289689  -0.008302
 1415.0    0.289558  -0.008252
 1416.0    0.289423  -0.008202
 1417.0    0.289288  -0.008151
 1418.0    0.289153  -0.008101
 1419.0    0.289017  -0.008051
 1420.0    0.288882  -0.008001
 1421.0    0.288742  -0.007950
 1422.0    0.288602  -0.007900
 1423.0    0.288462  -0.007849
 1424.0    0.288321  -0.007799
 1425.0    0.288181  -0.007749
 1426.0    0.288037  -0.007698
 1427.0    0.287892  -0.007648
 1428.0    0.287747  -0.007598
 1429.0    0.287603  -0.007547
 1430.0    0.287458  -0.007497
 1431.0    0.287309  -0.007446
 1432.0    0.287161  -0.007396
 1433.0    0.287012  -0.007345
 1434.0    0.286863  -0.007295
 1435.0    0.286714  -0.007245
 1436.0    0.286563  -0.007195
 1437.0    0.286411  -0.007145
 1438.0    0.286259  -0.007095
 1439.0    0.286107  -0.007045
 1440.0    0.285955  -0.006995
 1441.0    0.285799  -0.006944
 1442.0    0.285643  -0.006894
 1443.0    0.285488  -0.006844
 1444.0    0.285332  -0.006794
 1445.0    0.285176  -0.006744
 1446.0    0.285018  -0.006694
 1447.0    0.284859  -0.006644
 1448.0    0.284701  -0.006594
 1449.0    0.284542  -0.006544
 1450.0    0.284383  -0.006494
 1451.0    0.284222  -0.006444
 1452.0    0.284061  -0.006394
 1453.0    0.283900  -0.006344
 1454.0    0.283739  -0.006295
 1455.0    0.283577  -0.006245
 1456.0    0.283414  -0.006195
 1457.0    0.283250  -0.006146
 1458.0    0.283087  -0.006096
 1459.0    0.282923  -0.006046
 1460.0    0.282760  -0.005997
 1461.0    0.282594  -0.005948
 1462.0    0.282428  -0.005898
 1463.0    0.282263  -0.005849
 1464.0    0.282097  -0.005799
 1465.0    0.281932  -0.005750
 1466.0    0.281764  -0.005701
 1467.0    0.281597  -0.005652
 1468.0    0.281430  -0.005603
 1469.0    0.281262  -0.005554
 1470.0    0.281095  -0.005505
 1471.0    0.280926  -0.005456
 1472.0    0.280757  -0.005407
 1473.0    0.280589  -0.005358
 1474.0    0.280420  -0.005309
 1475.0    0.280251  -0.005260
 1476.0    0.280081  -0.005212
 1477.0    0.279911  -0.005163
 1478.0    0.279741  -0.005115
 1479.0    0.279571  -0.005066
 1480.0    0.279401  -0.005017
 1481.0    0.279231  -0.004969
 1482.0    0.279060  -0.004921
 1483.0    0.278889  -0.004872
 1484.0    0.278718  -0.004824
 1485.0    0.278547  -0.004776
 1486.0    0.278376  -0.004727
 1487.0    0.278204  -0.004679
 1488.0    0.278033  -0.004631
 1489.0    0.277861  -0.004583
 1490.0    0.277690  -0.004535
 1491.0    0.277518  -0.004487
 1492.0    0.277346  -0.004439
 1493.0    0.277174  -0.004391
 1494.0    0.277002  -0.004343
 1495.0    0.276830  -0.004295
 1496.0    0.276658  -0.004248
 1497.0    0.276486  -0.004200
 1498.0    0.276314  -0.004152
 1499.0    0.276142  -0.004104
 1500.0    0.275969  -0.004057
 1501.0    0.275796  -0.004008
 1502.0    0.275622  -0.003959
 1503.0    0.275448  -0.003910
 1504.0    0.275274  -0.003861
 1505.0    0.275101  -0.003812
 1506.0    0.274931  -0.003766
 1507.0    0.274761  -0.003720
 1508.0    0.274591  -0.003674
 1509.0    0.274421  -0.003628
 1510.0    0.274252  -0.003582
 1511.0    0.274080  -0.003535
 1512.0    0.273909  -0.003488
 1513.0    0.273738  -0.003440
 1514.0    0.273566  -0.003393
 1515.0    0.273395  -0.003345
 1516.0    0.273224  -0.003298
 1517.0    0.273054  -0.003251
 1518.0    0.272883  -0.003203
 1519.0    0.272712  -0.003156
 1520.0    0.272542  -0.003109
 1521.0    0.272372  -0.003061
 1522.0    0.272202  -0.003014
 1523.0    0.272032  -0.002967
 1524.0    0.271863  -0.002919
 1525.0    0.271693  -0.002872
 1526.0    0.271524  -0.002824
 1527.0    0.271356  -0.002777
 1528.0    0.271187  -0.002729
 1529.0    0.271018  -0.002682
 1530.0    0.270849  -0.002634
 1531.0    0.270682  -0.002587
 1532.0    0.270515  -0.002539
 1533.0    0.270347  -0.002491
 1534.0    0.270180  -0.002444
 1535.0    0.270012  -0.002396
 1536.0    0.269846  -0.002348
 1537.0    0.269680  -0.002300
 1538.0    0.269514  -0.002252
 1539.0    0.269348  -0.002205
 1540.0    0.269182  -0.002157
 1541.0    0.269017  -0.002108
 1542.0    0.268853  -0.002060
 1543.0    0.268688  -0.002012
 1544.0    0.268524  -0.001964
 1545.0    0.268359  -0.001915
 1546.0    0.268196  -0.001867
 1547.0    0.268034  -0.001818
 1548.0    0.267871  -0.001769
 1549.0    0.267708  -0.001721
 1550.0    0.267545  -0.001672
 1551.0    0.267384  -0.001623
 1552.0    0.267223  -0.001574
 1553.0    0.267062  -0.001524
 1554.0    0.266901  -0.001475
 1555.0    0.266740  -0.001426
 1556.0    0.266581  -0.001376
 1557.0    0.266422  -0.001326
 1558.0    0.266263  -0.001276
 1559.0    0.266104  -0.001227
 1560.0    0.265945  -0.001177
 1561.0    0.265788  -0.001126
 1562.0    0.265632  -0.001076
 1563.0    0.265475  -0.001025
 1564.0    0.265318  -0.000974
 1565.0    0.265161  -0.000924
 1566.0    0.265006  -0.000872
 1567.0    0.264851  -0.000821
 1568.0    0.264697  -0.000769
 1569.0    0.264542  -0.000718
 1570.0    0.264387  -0.000666
 1571.0    0.264235  -0.000614
 1572.0    0.264083  -0.000561
 1573.0    0.263930  -0.000509
 1574.0    0.263778  -0.000456
 1575.0    0.263626  -0.000404
 1576.0    0.263476  -0.000350
 1577.0    0.263326  -0.000297
 1578.0    0.263176  -0.000243
 1579.0    0.263026  -0.000189
 1580.0    0.262876  -0.000136
 1581.0    0.262729  -0.000081
 1582.0    0.262581  -0.000026
 1583.0    0.262434   0.000029
 1584.0    0.262286   0.000084
 1585.0    0.262139   0.000139
 1586.0    0.261994   0.000195
 1587.0    0.261849   0.000251
 1588.0    0.261705   0.000308
 1589.0    0.261560   0.000364
 1590.0    0.261415   0.000420
 1591.0    0.261273   0.000478
 1592.0    0.261131   0.000536
 1593.0    0.260989   0.000594
 1594.0    0.260847   0.000652
 1595.0    0.260704   0.000710
 1596.0    0.260565   0.000769
 1597.0    0.260426   0.000829
 1598.0    0.260286   0.000889
 1599.0    0.260147   0.000948
 1600.0    0.260007   0.001008
 1601.0    0.259871   0.001069
 1602.0    0.259735   0.001130
 1603.0    0.259599   0.001192
 1604.0    0.259463   0.001253
 1605.0    0.259326   0.001314
 1606.0    0.259192   0.001378
 1607.0    0.259059   0.001442
 1608.0    0.258925   0.001505
 1609.0    0.258791   0.001569
 1610.0    0.258657   0.001633
 1611.0    0.258526   0.001699
 1612.0    0.258395   0.001765
 1613.0    0.258265   0.001830
 1614.0    0.258134   0.001896
 1615.0    0.258003   0.001962
 1616.0    0.257875   0.002030
 1617.0    0.257747   0.002099
 1618.0    0.257619   0.002167
 1619.0    0.257492   0.002235
 1620.0    0.257364   0.002304
 1621.0    0.257239   0.002374
 1622.0    0.257114   0.002445
 1623.0    0.256989   0.002516
 1624.0    0.256864   0.002587
 1625.0    0.256739   0.002658
 1626.0    0.256618   0.002732
 1627.0    0.256496   0.002806
 1628.0    0.256374   0.002879
 1629.0    0.256252   0.002953
 1630.0    0.256130   0.003027
 1631.0    0.256011   0.003104
 1632.0    0.255892   0.003181
 1633.0    0.255773   0.003257
 1634.0    0.255654   0.003334
 1635.0    0.255536   0.003411
 1636.0    0.255420   0.003491
 1637.0    0.255304   0.003571
 1638.0    0.255188   0.003651
 1639.0    0.255072   0.003731
 1640.0    0.254956   0.003811
 1641.0    0.254843   0.003895
 1642.0    0.254730   0.003978
 1643.0    0.254617   0.004062
 1644.0    0.254504   0.004146
 1645.0    0.254391   0.004229
 1646.0    0.254281   0.004316
 1647.0    0.254172   0.004404
 1648.0    0.254062   0.004491
 1649.0    0.253952   0.004578
 1650.0    0.253842   0.004665
 1651.0    0.253735   0.004757
 1652.0    0.253628   0.004848
 1653.0    0.253520   0.004939
 1654.0    0.253413   0.005030
 1655.0    0.253306   0.005121
 1656.0    0.253202   0.005217
 1657.0    0.253098   0.005312
 1658.0    0.252994   0.005408
 1659.0    0.252890   0.005503
 1660.0    0.252786   0.005599
 1661.0    0.252684   0.005698
 1662.0    0.252583   0.005798
 1663.0    0.252482   0.005898
 1664.0    0.252380   0.005998
 1665.0    0.252279   0.006098
 1666.0    0.252180   0.006202
 1667.0    0.252082   0.006307
 1668.0    0.251983   0.006411
 1669.0    0.251885   0.006516
 1670.0    0.251786   0.006621
 1671.0    0.251690   0.006730
 1672.0    0.251594   0.006840
 1673.0    0.251498   0.006949
 1674.0    0.251402   0.007059
 1675.0    0.251306   0.007168
 1676.0    0.251213   0.007283
 1677.0    0.251120   0.007397
 1678.0    0.251026   0.007512
 1679.0    0.250933   0.007627
 1680.0    0.250840   0.007742
 1681.0    0.250749   0.007862
 1682.0    0.250658   0.007982
 1683.0    0.250567   0.008102
 1684.0    0.250476   0.008222
 1685.0    0.250386   0.008342
 1686.0    0.250297   0.008468
 1687.0    0.250209   0.008594
 1688.0    0.250120   0.008720
 1689.0    0.250032   0.008846
 1690.0    0.249943   0.008972
 1691.0    0.249857   0.009104
 1692.0    0.249771   0.009236
 1693.0    0.249684   0.009367
 1694.0    0.249598   0.009499
 1695.0    0.249512   0.009631
 1696.0    0.249427   0.009769
 1697.0    0.249343   0.009907
 1698.0    0.249259   0.010045
 1699.0    0.249175   0.010184
 1700.0    0.249091   0.010322
 1701.0    0.249008   0.010466
 1702.0    0.248926   0.010611
 1703.0    0.248844   0.010755
 1704.0    0.248761   0.010900
 1705.0    0.248679   0.011044
 1706.0    0.248598   0.011196
 1707.0    0.248518   0.011347
 1708.0    0.248437   0.011498
 1709.0    0.248356   0.011649
 1710.0    0.248276   0.011801
 1711.0    0.248197   0.011959
 1712.0    0.248118   0.012117
 1713.0    0.248038   0.012275
 1714.0    0.247959   0.012433
 1715.0    0.247880   0.012592
 1716.0    0.247802   0.012757
 1717.0    0.247725   0.012922
 1718.0    0.247647   0.013088
 1719.0    0.247569   0.013253
 1720.0    0.247491   0.013418
 1721.0    0.247414   0.013591
 1722.0    0.247337   0.013764
