   W         E4-(pi+_n)
 (MeV)      Re         Im
 1080.0    0.000046  -0.000002
 1081.0    0.000427  -0.000023
 1082.0    0.000808  -0.000044
 1083.0    0.001189  -0.000065
 1084.0    0.001571  -0.000085
 1085.0    0.001952  -0.000106
 1086.0    0.002807  -0.000152
 1087.0    0.003663  -0.000199
 1088.0    0.004518  -0.000245
 1089.0    0.005374  -0.000292
 1090.0    0.006229  -0.000338
 1091.0    0.007457  -0.000405
 1092.0    0.008686  -0.000471
 1093.0    0.009914  -0.000538
 1094.0    0.011143  -0.000605
 1095.0    0.012371  -0.000671
 1096.0    0.013890  -0.000754
 1097.0    0.015409  -0.000836
 1098.0    0.016928  -0.000918
 1099.0    0.018447  -0.001001
 1100.0    0.019966  -0.001083
 1101.0    0.021707  -0.001178
 1102.0    0.023449  -0.001272
 1103.0    0.025190  -0.001367
 1104.0    0.026932  -0.001461
 1105.0    0.028673  -0.001555
 1106.0    0.030582  -0.001659
 1107.0    0.032491  -0.001763
 1108.0    0.034399  -0.001866
 1109.0    0.036308  -0.001970
 1110.0    0.038217  -0.002073
 1111.0    0.040247  -0.002183
 1112.0    0.042278  -0.002293
 1113.0    0.044308  -0.002403
 1114.0    0.046338  -0.002514
 1115.0    0.048369  -0.002624
 1116.0    0.050483  -0.002738
 1117.0    0.052598  -0.002853
 1118.0    0.054713  -0.002968
 1119.0    0.056827  -0.003082
 1120.0    0.058942  -0.003197
 1121.0    0.061111  -0.003315
 1122.0    0.063279  -0.003432
 1123.0    0.065448  -0.003550
 1124.0    0.067616  -0.003668
 1125.0    0.069785  -0.003785
 1126.0    0.071982  -0.003904
 1127.0    0.074180  -0.004024
 1128.0    0.076377  -0.004143
 1129.0    0.078575  -0.004262
 1130.0    0.080772  -0.004381
 1131.0    0.082978  -0.004501
 1132.0    0.085184  -0.004621
 1133.0    0.087390  -0.004741
 1134.0    0.089596  -0.004860
 1135.0    0.091802  -0.004980
 1136.0    0.094001  -0.005099
 1137.0    0.096199  -0.005219
 1138.0    0.098397  -0.005338
 1139.0    0.100595  -0.005457
 1140.0    0.102793  -0.005577
 1141.0    0.104970  -0.005695
 1142.0    0.107147  -0.005813
 1143.0    0.109324  -0.005932
 1144.0    0.111501  -0.006050
 1145.0    0.113678  -0.006168
 1146.0    0.115823  -0.006285
 1147.0    0.117968  -0.006402
 1148.0    0.120113  -0.006518
 1149.0    0.122259  -0.006635
 1150.0    0.124404  -0.006751
 1151.0    0.126508  -0.006866
 1152.0    0.128613  -0.006981
 1153.0    0.130718  -0.007095
 1154.0    0.132823  -0.007210
 1155.0    0.134927  -0.007324
 1156.0    0.136985  -0.007436
 1157.0    0.139043  -0.007549
 1158.0    0.141101  -0.007661
 1159.0    0.143158  -0.007773
 1160.0    0.145216  -0.007885
 1161.0    0.147222  -0.007995
 1162.0    0.149227  -0.008104
 1163.0    0.151233  -0.008214
 1164.0    0.153238  -0.008323
 1165.0    0.155244  -0.008433
 1166.0    0.157194  -0.008539
 1167.0    0.159143  -0.008646
 1168.0    0.161093  -0.008753
 1169.0    0.163042  -0.008859
 1170.0    0.164992  -0.008966
 1171.0    0.166883  -0.009070
 1172.0    0.168774  -0.009173
 1173.0    0.170664  -0.009277
 1174.0    0.172555  -0.009381
 1175.0    0.174446  -0.009484
 1176.0    0.176276  -0.009585
 1177.0    0.178106  -0.009685
 1178.0    0.179936  -0.009786
 1179.0    0.181766  -0.009887
 1180.0    0.183596  -0.009987
 1181.0    0.185364  -0.010085
 1182.0    0.187132  -0.010182
 1183.0    0.188900  -0.010280
 1184.0    0.190668  -0.010377
 1185.0    0.192435  -0.010475
 1186.0    0.194141  -0.010569
 1187.0    0.195846  -0.010663
 1188.0    0.197551  -0.010758
 1189.0    0.199256  -0.010852
 1190.0    0.200962  -0.010946
 1191.0    0.202604  -0.011038
 1192.0    0.204247  -0.011129
 1193.0    0.205889  -0.011220
 1194.0    0.207532  -0.011311
 1195.0    0.209174  -0.011403
 1196.0    0.210754  -0.011491
 1197.0    0.212334  -0.011579
 1198.0    0.213914  -0.011667
 1199.0    0.215493  -0.011755
 1200.0    0.217073  -0.011844
 1201.0    0.218591  -0.011929
 1202.0    0.220109  -0.012014
 1203.0    0.221627  -0.012099
 1204.0    0.223145  -0.012184
 1205.0    0.224663  -0.012269
 1206.0    0.226119  -0.012351
 1207.0    0.227576  -0.012434
 1208.0    0.229033  -0.012516
 1209.0    0.230490  -0.012598
 1210.0    0.231946  -0.012680
 1211.0    0.233343  -0.012759
 1212.0    0.234740  -0.012839
 1213.0    0.236136  -0.012918
 1214.0    0.237533  -0.012997
 1215.0    0.238929  -0.013077
 1216.0    0.240267  -0.013153
 1217.0    0.241605  -0.013230
 1218.0    0.242943  -0.013306
 1219.0    0.244281  -0.013383
 1220.0    0.245618  -0.013459
 1221.0    0.246899  -0.013533
 1222.0    0.248179  -0.013606
 1223.0    0.249459  -0.013680
 1224.0    0.250740  -0.013754
 1225.0    0.252020  -0.013828
 1226.0    0.253244  -0.013899
 1227.0    0.254468  -0.013970
 1228.0    0.255693  -0.014041
 1229.0    0.256917  -0.014112
 1230.0    0.258141  -0.014183
 1231.0    0.259311  -0.014252
 1232.0    0.260481  -0.014320
 1233.0    0.261650  -0.014389
 1234.0    0.262820  -0.014457
 1235.0    0.263990  -0.014526
 1236.0    0.265107  -0.014592
 1237.0    0.266224  -0.014658
 1238.0    0.267340  -0.014724
 1239.0    0.268457  -0.014790
 1240.0    0.269574  -0.014856
 1241.0    0.270640  -0.014919
 1242.0    0.271705  -0.014983
 1243.0    0.272771  -0.015046
 1244.0    0.273837  -0.015110
 1245.0    0.274902  -0.015174
 1246.0    0.275918  -0.015235
 1247.0    0.276934  -0.015296
 1248.0    0.277950  -0.015357
 1249.0    0.278966  -0.015419
 1250.0    0.279982  -0.015480
 1251.0    0.280950  -0.015539
 1252.0    0.281918  -0.015598
 1253.0    0.282886  -0.015657
 1254.0    0.283854  -0.015716
 1255.0    0.284822  -0.015775
 1256.0    0.285744  -0.015832
 1257.0    0.286665  -0.015889
 1258.0    0.287587  -0.015946
 1259.0    0.288509  -0.016002
 1260.0    0.289431  -0.016059
 1261.0    0.290308  -0.016114
 1262.0    0.291185  -0.016169
 1263.0    0.292062  -0.016223
 1264.0    0.292939  -0.016278
 1265.0    0.293816  -0.016333
 1266.0    0.294650  -0.016386
 1267.0    0.295485  -0.016438
 1268.0    0.296319  -0.016491
 1269.0    0.297153  -0.016544
 1270.0    0.297987  -0.016596
 1271.0    0.298779  -0.016647
 1272.0    0.299572  -0.016697
 1273.0    0.300364  -0.016747
 1274.0    0.301156  -0.016798
 1275.0    0.301949  -0.016848
 1276.0    0.302701  -0.016896
 1277.0    0.303454  -0.016945
 1278.0    0.304207  -0.016993
 1279.0    0.304959  -0.017042
 1280.0    0.305712  -0.017090
 1281.0    0.306426  -0.017137
 1282.0    0.307141  -0.017184
 1283.0    0.307855  -0.017230
 1284.0    0.308570  -0.017277
 1285.0    0.309284  -0.017324
 1286.0    0.309962  -0.017368
 1287.0    0.310640  -0.017413
 1288.0    0.311318  -0.017458
 1289.0    0.311996  -0.017503
 1290.0    0.312673  -0.017547
 1291.0    0.313316  -0.017590
 1292.0    0.313958  -0.017633
 1293.0    0.314600  -0.017675
 1294.0    0.315242  -0.017718
 1295.0    0.315885  -0.017761
 1296.0    0.316493  -0.017802
 1297.0    0.317102  -0.017842
 1298.0    0.317710  -0.017883
 1299.0    0.318318  -0.017924
 1300.0    0.318927  -0.017965
 1301.0    0.319503  -0.018004
 1302.0    0.320079  -0.018043
 1303.0    0.320656  -0.018082
 1304.0    0.321232  -0.018121
 1305.0    0.321808  -0.018161
 1306.0    0.322353  -0.018197
 1307.0    0.322897  -0.018234
 1308.0    0.323442  -0.018271
 1309.0    0.323987  -0.018308
 1310.0    0.324531  -0.018345
 1311.0    0.325046  -0.018380
 1312.0    0.325561  -0.018415
 1313.0    0.326076  -0.018450
 1314.0    0.326591  -0.018485
 1315.0    0.327106  -0.018520
 1316.0    0.327592  -0.018553
 1317.0    0.328079  -0.018586
 1318.0    0.328565  -0.018619
 1319.0    0.329051  -0.018652
 1320.0    0.329537  -0.018685
 1321.0    0.329997  -0.018717
 1322.0    0.330457  -0.018748
 1323.0    0.330916  -0.018780
 1324.0    0.331376  -0.018811
 1325.0    0.331835  -0.018843
 1326.0    0.332268  -0.018871
 1327.0    0.332700  -0.018900
 1328.0    0.333133  -0.018929
 1329.0    0.333565  -0.018958
 1330.0    0.333998  -0.018987
 1331.0    0.334406  -0.019014
 1332.0    0.334814  -0.019041
 1333.0    0.335221  -0.019068
 1334.0    0.335629  -0.019095
 1335.0    0.336037  -0.019122
 1336.0    0.336421  -0.019147
 1337.0    0.336805  -0.019171
 1338.0    0.337188  -0.019196
 1339.0    0.337572  -0.019221
 1340.0    0.337956  -0.019246
 1341.0    0.338317  -0.019269
 1342.0    0.338678  -0.019291
 1343.0    0.339039  -0.019314
 1344.0    0.339400  -0.019337
 1345.0    0.339761  -0.019359
 1346.0    0.340100  -0.019380
 1347.0    0.340439  -0.019400
 1348.0    0.340778  -0.019420
 1349.0    0.341117  -0.019441
 1350.0    0.341456  -0.019461
 1351.0    0.341774  -0.019479
 1352.0    0.342093  -0.019498
 1353.0    0.342411  -0.019516
 1354.0    0.342729  -0.019534
 1355.0    0.343048  -0.019552
 1356.0    0.343346  -0.019568
 1357.0    0.343644  -0.019584
 1358.0    0.343942  -0.019599
 1359.0    0.344240  -0.019615
 1360.0    0.344539  -0.019631
 1361.0    0.344818  -0.019644
 1362.0    0.345097  -0.019657
 1363.0    0.345376  -0.019670
 1364.0    0.345655  -0.019684
 1365.0    0.345934  -0.019697
 1366.0    0.346195  -0.019707
 1367.0    0.346456  -0.019718
 1368.0    0.346717  -0.019729
 1369.0    0.346978  -0.019739
 1370.0    0.347238  -0.019750
 1371.0    0.347482  -0.019758
 1372.0    0.347725  -0.019766
 1373.0    0.347969  -0.019774
 1374.0    0.348212  -0.019782
 1375.0    0.348456  -0.019790
 1376.0    0.348683  -0.019795
 1377.0    0.348909  -0.019800
 1378.0    0.349136  -0.019805
 1379.0    0.349363  -0.019810
 1380.0    0.349590  -0.019815
 1381.0    0.349801  -0.019818
 1382.0    0.350012  -0.019820
 1383.0    0.350223  -0.019822
 1384.0    0.350434  -0.019824
 1385.0    0.350645  -0.019827
 1386.0    0.350840  -0.019826
 1387.0    0.351036  -0.019825
 1388.0    0.351232  -0.019825
 1389.0    0.351428  -0.019824
 1390.0    0.351623  -0.019823
 1391.0    0.351805  -0.019819
 1392.0    0.351986  -0.019815
 1393.0    0.352167  -0.019812
 1394.0    0.352348  -0.019808
 1395.0    0.352530  -0.019804
 1396.0    0.352697  -0.019797
 1397.0    0.352864  -0.019790
 1398.0    0.353032  -0.019783
 1399.0    0.353199  -0.019776
 1400.0    0.353366  -0.019769
 1401.0    0.353521  -0.019759
 1402.0    0.353675  -0.019748
 1403.0    0.353829  -0.019738
 1404.0    0.353983  -0.019727
 1405.0    0.354137  -0.019717
 1406.0    0.354278  -0.019703
 1407.0    0.354420  -0.019689
 1408.0    0.354561  -0.019676
 1409.0    0.354703  -0.019662
 1410.0    0.354844  -0.019648
 1411.0    0.354974  -0.019631
 1412.0    0.355103  -0.019613
 1413.0    0.355232  -0.019596
 1414.0    0.355362  -0.019579
 1415.0    0.355491  -0.019561
 1416.0    0.355609  -0.019540
 1417.0    0.355726  -0.019519
 1418.0    0.355844  -0.019498
 1419.0    0.355962  -0.019477
 1420.0    0.356079  -0.019456
 1421.0    0.356186  -0.019431
 1422.0    0.356292  -0.019406
 1423.0    0.356399  -0.019381
 1424.0    0.356506  -0.019357
 1425.0    0.356612  -0.019332
 1426.0    0.356708  -0.019303
 1427.0    0.356804  -0.019274
 1428.0    0.356900  -0.019245
 1429.0    0.356996  -0.019217
 1430.0    0.357092  -0.019188
 1431.0    0.357178  -0.019155
 1432.0    0.357263  -0.019122
 1433.0    0.357349  -0.019090
 1434.0    0.357435  -0.019057
 1435.0    0.357521  -0.019024
 1436.0    0.357596  -0.018987
 1437.0    0.357672  -0.018950
 1438.0    0.357748  -0.018913
 1439.0    0.357823  -0.018876
 1440.0    0.357899  -0.018838
 1441.0    0.357965  -0.018797
 1442.0    0.358032  -0.018756
 1443.0    0.358098  -0.018715
 1444.0    0.358165  -0.018674
 1445.0    0.358231  -0.018632
 1446.0    0.358289  -0.018587
 1447.0    0.358346  -0.018541
 1448.0    0.358403  -0.018495
 1449.0    0.358461  -0.018450
 1450.0    0.358518  -0.018404
 1451.0    0.358567  -0.018354
 1452.0    0.358615  -0.018304
 1453.0    0.358664  -0.018254
 1454.0    0.358712  -0.018203
 1455.0    0.358761  -0.018153
 1456.0    0.358801  -0.018098
 1457.0    0.358841  -0.018044
 1458.0    0.358881  -0.017989
 1459.0    0.358921  -0.017934
 1460.0    0.358961  -0.017879
 1461.0    0.358993  -0.017820
 1462.0    0.359025  -0.017760
 1463.0    0.359057  -0.017701
 1464.0    0.359089  -0.017641
 1465.0    0.359121  -0.017582
 1466.0    0.359145  -0.017517
 1467.0    0.359169  -0.017453
 1468.0    0.359194  -0.017389
 1469.0    0.359218  -0.017324
 1470.0    0.359242  -0.017260
 1471.0    0.359258  -0.017191
 1472.0    0.359275  -0.017122
 1473.0    0.359291  -0.017052
 1474.0    0.359308  -0.016983
 1475.0    0.359324  -0.016914
 1476.0    0.359333  -0.016839
 1477.0    0.359342  -0.016765
 1478.0    0.359351  -0.016691
 1479.0    0.359360  -0.016617
 1480.0    0.359369  -0.016542
 1481.0    0.359371  -0.016463
 1482.0    0.359372  -0.016383
 1483.0    0.359374  -0.016304
 1484.0    0.359376  -0.016225
 1485.0    0.359378  -0.016145
 1486.0    0.359373  -0.016060
 1487.0    0.359367  -0.015976
 1488.0    0.359362  -0.015891
 1489.0    0.359357  -0.015807
 1490.0    0.359352  -0.015722
 1491.0    0.359340  -0.015632
 1492.0    0.359328  -0.015542
 1493.0    0.359316  -0.015452
 1494.0    0.359303  -0.015362
 1495.0    0.359291  -0.015272
 1496.0    0.359273  -0.015177
 1497.0    0.359254  -0.015082
 1498.0    0.359235  -0.014986
 1499.0    0.359216  -0.014891
 1500.0    0.359197  -0.014796
 1501.0    0.359173  -0.014696
 1502.0    0.359148  -0.014595
 1503.0    0.359124  -0.014495
 1504.0    0.359099  -0.014395
 1505.0    0.359074  -0.014295
 1506.0    0.359042  -0.014188
 1507.0    0.359009  -0.014081
 1508.0    0.358976  -0.013974
 1509.0    0.358943  -0.013867
 1510.0    0.358911  -0.013760
 1511.0    0.358872  -0.013648
 1512.0    0.358834  -0.013536
 1513.0    0.358796  -0.013424
 1514.0    0.358758  -0.013313
 1515.0    0.358720  -0.013201
 1516.0    0.358675  -0.013083
 1517.0    0.358631  -0.012966
 1518.0    0.358587  -0.012848
 1519.0    0.358542  -0.012731
 1520.0    0.358498  -0.012613
 1521.0    0.358447  -0.012490
 1522.0    0.358396  -0.012367
 1523.0    0.358346  -0.012244
 1524.0    0.358295  -0.012120
 1525.0    0.358244  -0.011997
 1526.0    0.358188  -0.011868
 1527.0    0.358131  -0.011739
 1528.0    0.358074  -0.011610
 1529.0    0.358018  -0.011481
 1530.0    0.357961  -0.011352
 1531.0    0.357898  -0.011218
 1532.0    0.357835  -0.011083
 1533.0    0.357772  -0.010948
 1534.0    0.357710  -0.010813
 1535.0    0.357647  -0.010679
 1536.0    0.357578  -0.010538
 1537.0    0.357509  -0.010398
 1538.0    0.357440  -0.010257
 1539.0    0.357372  -0.010116
 1540.0    0.357303  -0.009976
 1541.0    0.357228  -0.009829
 1542.0    0.357153  -0.009683
 1543.0    0.357078  -0.009537
 1544.0    0.357003  -0.009390
 1545.0    0.356929  -0.009244
 1546.0    0.356848  -0.009092
 1547.0    0.356767  -0.008939
 1548.0    0.356686  -0.008787
 1549.0    0.356605  -0.008635
 1550.0    0.356524  -0.008482
 1551.0    0.356438  -0.008324
 1552.0    0.356351  -0.008166
 1553.0    0.356264  -0.008008
 1554.0    0.356178  -0.007850
 1555.0    0.356091  -0.007692
 1556.0    0.355998  -0.007528
 1557.0    0.355905  -0.007363
 1558.0    0.355813  -0.007199
 1559.0    0.355720  -0.007035
 1560.0    0.355627  -0.006871
 1561.0    0.355529  -0.006701
 1562.0    0.355430  -0.006531
 1563.0    0.355332  -0.006361
 1564.0    0.355233  -0.006191
 1565.0    0.355134  -0.006021
 1566.0    0.355030  -0.005846
 1567.0    0.354925  -0.005670
 1568.0    0.354820  -0.005494
 1569.0    0.354716  -0.005318
 1570.0    0.354611  -0.005142
 1571.0    0.354500  -0.004960
 1572.0    0.354390  -0.004778
 1573.0    0.354279  -0.004597
 1574.0    0.354168  -0.004415
 1575.0    0.354058  -0.004233
 1576.0    0.353941  -0.004045
 1577.0    0.353824  -0.003858
 1578.0    0.353708  -0.003670
 1579.0    0.353591  -0.003482
 1580.0    0.353475  -0.003295
 1581.0    0.353352  -0.003101
 1582.0    0.353229  -0.002908
 1583.0    0.353106  -0.002714
 1584.0    0.352984  -0.002521
 1585.0    0.352861  -0.002327
 1586.0    0.352732  -0.002128
 1587.0    0.352603  -0.001928
 1588.0    0.352474  -0.001729
 1589.0    0.352345  -0.001529
 1590.0    0.352217  -0.001330
 1591.0    0.352082  -0.001125
 1592.0    0.351947  -0.000919
 1593.0    0.351812  -0.000714
 1594.0    0.351677  -0.000509
 1595.0    0.351541  -0.000304
 1596.0    0.351400  -0.000093
 1597.0    0.351259   0.000118
 1598.0    0.351118   0.000329
 1599.0    0.350977   0.000540
 1600.0    0.350836   0.000751
 1601.0    0.350688   0.000968
 1602.0    0.350540   0.001185
 1603.0    0.350393   0.001402
 1604.0    0.350245   0.001619
 1605.0    0.350097   0.001836
 1606.0    0.349943   0.002059
 1607.0    0.349790   0.002281
 1608.0    0.349636   0.002504
 1609.0    0.349482   0.002726
 1610.0    0.349328   0.002949
 1611.0    0.349168   0.003177
 1612.0    0.349008   0.003405
 1613.0    0.348848   0.003633
 1614.0    0.348687   0.003861
 1615.0    0.348527   0.004090
 1616.0    0.348360   0.004324
 1617.0    0.348193   0.004557
 1618.0    0.348027   0.004791
 1619.0    0.347860   0.005025
 1620.0    0.347693   0.005259
 1621.0    0.347520   0.005499
 1622.0    0.347346   0.005738
 1623.0    0.347173   0.005977
 1624.0    0.347000   0.006217
 1625.0    0.346826   0.006456
 1626.0    0.346646   0.006702
 1627.0    0.346466   0.006947
 1628.0    0.346286   0.007192
 1629.0    0.346106   0.007437
 1630.0    0.345926   0.007682
 1631.0    0.345740   0.007932
 1632.0    0.345553   0.008183
 1633.0    0.345366   0.008433
 1634.0    0.345179   0.008684
 1635.0    0.344992   0.008934
 1636.0    0.344799   0.009190
 1637.0    0.344605   0.009446
 1638.0    0.344412   0.009702
 1639.0    0.344218   0.009958
 1640.0    0.344024   0.010214
 1641.0    0.343824   0.010476
 1642.0    0.343623   0.010737
 1643.0    0.343423   0.010998
 1644.0    0.343222   0.011260
 1645.0    0.343022   0.011521
 1646.0    0.342814   0.011787
 1647.0    0.342606   0.012054
 1648.0    0.342399   0.012321
 1649.0    0.342191   0.012587
 1650.0    0.341984   0.012854
 1651.0    0.341769   0.013126
 1652.0    0.341554   0.013398
 1653.0    0.341340   0.013670
 1654.0    0.341125   0.013942
 1655.0    0.340910   0.014213
 1656.0    0.340688   0.014490
 1657.0    0.340466   0.014767
 1658.0    0.340244   0.015044
 1659.0    0.340022   0.015321
 1660.0    0.339800   0.015599
 1661.0    0.339571   0.015881
 1662.0    0.339342   0.016163
 1663.0    0.339112   0.016445
 1664.0    0.338883   0.016727
 1665.0    0.338654   0.017009
 1666.0    0.338417   0.017296
 1667.0    0.338180   0.017583
 1668.0    0.337943   0.017870
 1669.0    0.337707   0.018157
 1670.0    0.337470   0.018444
 1671.0    0.337225   0.018736
 1672.0    0.336981   0.019027
 1673.0    0.336737   0.019319
 1674.0    0.336492   0.019611
 1675.0    0.336248   0.019903
 1676.0    0.335996   0.020199
 1677.0    0.335744   0.020496
 1678.0    0.335492   0.020792
 1679.0    0.335240   0.021089
 1680.0    0.334988   0.021385
 1681.0    0.334728   0.021686
 1682.0    0.334468   0.021987
 1683.0    0.334208   0.022288
 1684.0    0.333948   0.022589
 1685.0    0.333689   0.022890
 1686.0    0.333421   0.023195
 1687.0    0.333153   0.023500
 1688.0    0.332886   0.023806
 1689.0    0.332618   0.024111
 1690.0    0.332350   0.024416
 1691.0    0.332075   0.024725
 1692.0    0.331799   0.025035
 1693.0    0.331523   0.025344
 1694.0    0.331248   0.025653
 1695.0    0.330972   0.025963
 1696.0    0.330688   0.026276
 1697.0    0.330405   0.026589
 1698.0    0.330121   0.026902
 1699.0    0.329837   0.027215
 1700.0    0.329554   0.027528
 1701.0    0.329262   0.027845
 1702.0    0.328970   0.028162
 1703.0    0.328679   0.028478
 1704.0    0.328387   0.028795
 1705.0    0.328095   0.029112
 1706.0    0.327795   0.029432
 1707.0    0.327496   0.029751
 1708.0    0.327196   0.030071
 1709.0    0.326896   0.030391
 1710.0    0.326596   0.030711
 1711.0    0.326288   0.031034
 1712.0    0.325980   0.031357
 1713.0    0.325672   0.031680
 1714.0    0.325364   0.032002
 1715.0    0.325056   0.032325
 1716.0    0.324740   0.032651
 1717.0    0.324424   0.032976
 1718.0    0.324108   0.033302
 1719.0    0.323792   0.033627
 1720.0    0.323476   0.033952
 1721.0    0.323151   0.034280
 1722.0    0.322827   0.034608
