   W         E6+(pi+_n)
 (MeV)      Re         Im
 1080.0    0.000000  -0.000000
 1081.0    0.000002  -0.000000
 1082.0    0.000003  -0.000000
 1083.0    0.000005  -0.000000
 1084.0    0.000007  -0.000000
 1085.0    0.000009  -0.000000
 1086.0    0.000017  -0.000001
 1087.0    0.000025  -0.000001
 1088.0    0.000033  -0.000002
 1089.0    0.000042  -0.000002
 1090.0    0.000050  -0.000003
 1091.0    0.000068  -0.000004
 1092.0    0.000087  -0.000005
 1093.0    0.000105  -0.000006
 1094.0    0.000124  -0.000007
 1095.0    0.000142  -0.000008
 1096.0    0.000173  -0.000009
 1097.0    0.000204  -0.000011
 1098.0    0.000235  -0.000013
 1099.0    0.000265  -0.000014
 1100.0    0.000296  -0.000016
 1101.0    0.000340  -0.000018
 1102.0    0.000385  -0.000021
 1103.0    0.000429  -0.000023
 1104.0    0.000473  -0.000026
 1105.0    0.000517  -0.000028
 1106.0    0.000575  -0.000031
 1107.0    0.000633  -0.000034
 1108.0    0.000691  -0.000038
 1109.0    0.000749  -0.000041
 1110.0    0.000807  -0.000044
 1111.0    0.000879  -0.000048
 1112.0    0.000950  -0.000052
 1113.0    0.001022  -0.000056
 1114.0    0.001093  -0.000059
 1115.0    0.001165  -0.000063
 1116.0    0.001250  -0.000068
 1117.0    0.001334  -0.000072
 1118.0    0.001419  -0.000077
 1119.0    0.001504  -0.000082
 1120.0    0.001588  -0.000086
 1121.0    0.001685  -0.000092
 1122.0    0.001782  -0.000097
 1123.0    0.001879  -0.000102
 1124.0    0.001976  -0.000107
 1125.0    0.002072  -0.000113
 1126.0    0.002181  -0.000118
 1127.0    0.002289  -0.000124
 1128.0    0.002397  -0.000130
 1129.0    0.002505  -0.000136
 1130.0    0.002613  -0.000142
 1131.0    0.002732  -0.000148
 1132.0    0.002850  -0.000155
 1133.0    0.002968  -0.000161
 1134.0    0.003087  -0.000168
 1135.0    0.003205  -0.000174
 1136.0    0.003333  -0.000181
 1137.0    0.003460  -0.000188
 1138.0    0.003588  -0.000195
 1139.0    0.003715  -0.000202
 1140.0    0.003843  -0.000209
 1141.0    0.003978  -0.000216
 1142.0    0.004114  -0.000224
 1143.0    0.004250  -0.000231
 1144.0    0.004385  -0.000238
 1145.0    0.004521  -0.000246
 1146.0    0.004664  -0.000253
 1147.0    0.004806  -0.000261
 1148.0    0.004949  -0.000269
 1149.0    0.005091  -0.000277
 1150.0    0.005234  -0.000284
 1151.0    0.005383  -0.000292
 1152.0    0.005531  -0.000301
 1153.0    0.005680  -0.000309
 1154.0    0.005828  -0.000317
 1155.0    0.005977  -0.000325
 1156.0    0.006131  -0.000333
 1157.0    0.006284  -0.000341
 1158.0    0.006438  -0.000350
 1159.0    0.006592  -0.000358
 1160.0    0.006745  -0.000366
 1161.0    0.006903  -0.000375
 1162.0    0.007061  -0.000384
 1163.0    0.007218  -0.000392
 1164.0    0.007376  -0.000401
 1165.0    0.007534  -0.000409
 1166.0    0.007695  -0.000418
 1167.0    0.007856  -0.000427
 1168.0    0.008017  -0.000436
 1169.0    0.008178  -0.000444
 1170.0    0.008339  -0.000453
 1171.0    0.008502  -0.000462
 1172.0    0.008666  -0.000471
 1173.0    0.008829  -0.000480
 1174.0    0.008993  -0.000489
 1175.0    0.009156  -0.000497
 1176.0    0.009321  -0.000506
 1177.0    0.009487  -0.000515
 1178.0    0.009652  -0.000524
 1179.0    0.009817  -0.000533
 1180.0    0.009982  -0.000542
 1181.0    0.010149  -0.000551
 1182.0    0.010315  -0.000560
 1183.0    0.010481  -0.000569
 1184.0    0.010648  -0.000579
 1185.0    0.010814  -0.000588
 1186.0    0.010981  -0.000597
 1187.0    0.011148  -0.000606
 1188.0    0.011314  -0.000615
 1189.0    0.011481  -0.000624
 1190.0    0.011648  -0.000633
 1191.0    0.011815  -0.000642
 1192.0    0.011982  -0.000651
 1193.0    0.012148  -0.000660
 1194.0    0.012315  -0.000669
 1195.0    0.012482  -0.000678
 1196.0    0.012648  -0.000687
 1197.0    0.012815  -0.000696
 1198.0    0.012981  -0.000705
 1199.0    0.013147  -0.000714
 1200.0    0.013313  -0.000723
 1201.0    0.013479  -0.000732
 1202.0    0.013644  -0.000741
 1203.0    0.013809  -0.000750
 1204.0    0.013975  -0.000759
 1205.0    0.014140  -0.000768
 1206.0    0.014304  -0.000777
 1207.0    0.014468  -0.000786
 1208.0    0.014632  -0.000795
 1209.0    0.014796  -0.000804
 1210.0    0.014960  -0.000813
 1211.0    0.015122  -0.000822
 1212.0    0.015285  -0.000830
 1213.0    0.015447  -0.000839
 1214.0    0.015609  -0.000848
 1215.0    0.015772  -0.000857
 1216.0    0.015932  -0.000866
 1217.0    0.016093  -0.000874
 1218.0    0.016253  -0.000883
 1219.0    0.016413  -0.000892
 1220.0    0.016574  -0.000900
 1221.0    0.016732  -0.000909
 1222.0    0.016890  -0.000918
 1223.0    0.017048  -0.000926
 1224.0    0.017206  -0.000935
 1225.0    0.017364  -0.000943
 1226.0    0.017520  -0.000952
 1227.0    0.017675  -0.000960
 1228.0    0.017831  -0.000969
 1229.0    0.017987  -0.000977
 1230.0    0.018142  -0.000986
 1231.0    0.018295  -0.000994
 1232.0    0.018448  -0.001002
 1233.0    0.018601  -0.001011
 1234.0    0.018754  -0.001019
 1235.0    0.018907  -0.001027
 1236.0    0.019058  -0.001035
 1237.0    0.019208  -0.001044
 1238.0    0.019358  -0.001052
 1239.0    0.019508  -0.001060
 1240.0    0.019658  -0.001068
 1241.0    0.019805  -0.001076
 1242.0    0.019953  -0.001084
 1243.0    0.020100  -0.001092
 1244.0    0.020247  -0.001100
 1245.0    0.020394  -0.001108
 1246.0    0.020538  -0.001116
 1247.0    0.020682  -0.001124
 1248.0    0.020826  -0.001132
 1249.0    0.020970  -0.001139
 1250.0    0.021115  -0.001147
 1251.0    0.021255  -0.001155
 1252.0    0.021396  -0.001163
 1253.0    0.021537  -0.001170
 1254.0    0.021678  -0.001178
 1255.0    0.021819  -0.001186
 1256.0    0.021957  -0.001193
 1257.0    0.022094  -0.001200
 1258.0    0.022232  -0.001208
 1259.0    0.022370  -0.001215
 1260.0    0.022507  -0.001223
 1261.0    0.022641  -0.001230
 1262.0    0.022776  -0.001238
 1263.0    0.022910  -0.001245
 1264.0    0.023044  -0.001252
 1265.0    0.023179  -0.001259
 1266.0    0.023310  -0.001267
 1267.0    0.023440  -0.001274
 1268.0    0.023571  -0.001281
 1269.0    0.023702  -0.001288
 1270.0    0.023833  -0.001295
 1271.0    0.023961  -0.001302
 1272.0    0.024088  -0.001309
 1273.0    0.024215  -0.001316
 1274.0    0.024343  -0.001322
 1275.0    0.024470  -0.001329
 1276.0    0.024595  -0.001336
 1277.0    0.024719  -0.001343
 1278.0    0.024843  -0.001350
 1279.0    0.024967  -0.001357
 1280.0    0.025091  -0.001364
 1281.0    0.025212  -0.001370
 1282.0    0.025333  -0.001377
 1283.0    0.025453  -0.001383
 1284.0    0.025574  -0.001390
 1285.0    0.025694  -0.001396
 1286.0    0.025812  -0.001403
 1287.0    0.025929  -0.001409
 1288.0    0.026046  -0.001415
 1289.0    0.026164  -0.001422
 1290.0    0.026281  -0.001428
 1291.0    0.026395  -0.001434
 1292.0    0.026508  -0.001441
 1293.0    0.026622  -0.001447
 1294.0    0.026736  -0.001453
 1295.0    0.026850  -0.001459
 1296.0    0.026960  -0.001465
 1297.0    0.027070  -0.001471
 1298.0    0.027181  -0.001477
 1299.0    0.027291  -0.001483
 1300.0    0.027402  -0.001489
 1301.0    0.027508  -0.001495
 1302.0    0.027615  -0.001500
 1303.0    0.027722  -0.001506
 1304.0    0.027829  -0.001512
 1305.0    0.027936  -0.001518
 1306.0    0.028040  -0.001523
 1307.0    0.028143  -0.001529
 1308.0    0.028247  -0.001535
 1309.0    0.028351  -0.001540
 1310.0    0.028454  -0.001546
 1311.0    0.028555  -0.001551
 1312.0    0.028655  -0.001557
 1313.0    0.028756  -0.001562
 1314.0    0.028856  -0.001568
 1315.0    0.028956  -0.001573
 1316.0    0.029053  -0.001579
 1317.0    0.029150  -0.001584
 1318.0    0.029247  -0.001589
 1319.0    0.029345  -0.001594
 1320.0    0.029442  -0.001600
 1321.0    0.029535  -0.001605
 1322.0    0.029629  -0.001610
 1323.0    0.029722  -0.001615
 1324.0    0.029816  -0.001619
 1325.0    0.029910  -0.001624
 1326.0    0.030000  -0.001629
 1327.0    0.030091  -0.001634
 1328.0    0.030182  -0.001639
 1329.0    0.030273  -0.001645
 1330.0    0.030364  -0.001650
 1331.0    0.030451  -0.001654
 1332.0    0.030539  -0.001659
 1333.0    0.030626  -0.001664
 1334.0    0.030714  -0.001669
 1335.0    0.030801  -0.001673
 1336.0    0.030886  -0.001678
 1337.0    0.030970  -0.001683
 1338.0    0.031055  -0.001687
 1339.0    0.031139  -0.001692
 1340.0    0.031224  -0.001696
 1341.0    0.031305  -0.001701
 1342.0    0.031386  -0.001705
 1343.0    0.031468  -0.001709
 1344.0    0.031549  -0.001714
 1345.0    0.031631  -0.001718
 1346.0    0.031709  -0.001723
 1347.0    0.031787  -0.001727
 1348.0    0.031866  -0.001731
 1349.0    0.031944  -0.001735
 1350.0    0.032023  -0.001739
 1351.0    0.032098  -0.001744
 1352.0    0.032174  -0.001748
 1353.0    0.032250  -0.001752
 1354.0    0.032325  -0.001756
 1355.0    0.032401  -0.001760
 1356.0    0.032473  -0.001764
 1357.0    0.032546  -0.001768
 1358.0    0.032619  -0.001772
 1359.0    0.032692  -0.001776
 1360.0    0.032764  -0.001780
 1361.0    0.032834  -0.001784
 1362.0    0.032904  -0.001787
 1363.0    0.032974  -0.001791
 1364.0    0.033044  -0.001795
 1365.0    0.033114  -0.001799
 1366.0    0.033181  -0.001802
 1367.0    0.033248  -0.001806
 1368.0    0.033315  -0.001810
 1369.0    0.033383  -0.001813
 1370.0    0.033450  -0.001817
 1371.0    0.033514  -0.001820
 1372.0    0.033579  -0.001824
 1373.0    0.033643  -0.001827
 1374.0    0.033708  -0.001831
 1375.0    0.033772  -0.001834
 1376.0    0.033834  -0.001838
 1377.0    0.033896  -0.001841
 1378.0    0.033958  -0.001844
 1379.0    0.034020  -0.001848
 1380.0    0.034082  -0.001851
 1381.0    0.034141  -0.001854
 1382.0    0.034201  -0.001857
 1383.0    0.034260  -0.001860
 1384.0    0.034319  -0.001864
 1385.0    0.034379  -0.001867
 1386.0    0.034436  -0.001870
 1387.0    0.034493  -0.001873
 1388.0    0.034550  -0.001876
 1389.0    0.034607  -0.001879
 1390.0    0.034664  -0.001883
 1391.0    0.034718  -0.001885
 1392.0    0.034773  -0.001888
 1393.0    0.034827  -0.001891
 1394.0    0.034882  -0.001894
 1395.0    0.034936  -0.001897
 1396.0    0.034988  -0.001900
 1397.0    0.035040  -0.001903
 1398.0    0.035092  -0.001905
 1399.0    0.035144  -0.001908
 1400.0    0.035197  -0.001911
 1401.0    0.035246  -0.001914
 1402.0    0.035296  -0.001916
 1403.0    0.035346  -0.001919
 1404.0    0.035396  -0.001922
 1405.0    0.035446  -0.001924
 1406.0    0.035493  -0.001927
 1407.0    0.035541  -0.001929
 1408.0    0.035588  -0.001932
 1409.0    0.035636  -0.001934
 1410.0    0.035683  -0.001937
 1411.0    0.035729  -0.001939
 1412.0    0.035774  -0.001942
 1413.0    0.035820  -0.001944
 1414.0    0.035865  -0.001946
 1415.0    0.035910  -0.001949
 1416.0    0.035954  -0.001951
 1417.0    0.035997  -0.001953
 1418.0    0.036040  -0.001956
 1419.0    0.036083  -0.001958
 1420.0    0.036127  -0.001960
 1421.0    0.036168  -0.001962
 1422.0    0.036209  -0.001965
 1423.0    0.036250  -0.001967
 1424.0    0.036291  -0.001969
 1425.0    0.036332  -0.001971
 1426.0    0.036372  -0.001973
 1427.0    0.036411  -0.001975
 1428.0    0.036450  -0.001977
 1429.0    0.036489  -0.001979
 1430.0    0.036528  -0.001981
 1431.0    0.036565  -0.001983
 1432.0    0.036603  -0.001985
 1433.0    0.036640  -0.001987
 1434.0    0.036677  -0.001989
 1435.0    0.036714  -0.001991
 1436.0    0.036749  -0.001993
 1437.0    0.036785  -0.001995
 1438.0    0.036820  -0.001997
 1439.0    0.036855  -0.001998
 1440.0    0.036891  -0.002000
 1441.0    0.036924  -0.002002
 1442.0    0.036958  -0.002004
 1443.0    0.036991  -0.002005
 1444.0    0.037024  -0.002007
 1445.0    0.037058  -0.002009
 1446.0    0.037089  -0.002010
 1447.0    0.037121  -0.002012
 1448.0    0.037153  -0.002014
 1449.0    0.037184  -0.002015
 1450.0    0.037216  -0.002017
 1451.0    0.037246  -0.002018
 1452.0    0.037276  -0.002020
 1453.0    0.037306  -0.002021
 1454.0    0.037335  -0.002023
 1455.0    0.037365  -0.002024
 1456.0    0.037393  -0.002026
 1457.0    0.037422  -0.002027
 1458.0    0.037450  -0.002029
 1459.0    0.037478  -0.002030
 1460.0    0.037506  -0.002031
 1461.0    0.037533  -0.002033
 1462.0    0.037559  -0.002034
 1463.0    0.037586  -0.002035
 1464.0    0.037612  -0.002037
 1465.0    0.037639  -0.002038
 1466.0    0.037663  -0.002039
 1467.0    0.037688  -0.002040
 1468.0    0.037713  -0.002041
 1469.0    0.037738  -0.002043
 1470.0    0.037763  -0.002044
 1471.0    0.037786  -0.002045
 1472.0    0.037810  -0.002046
 1473.0    0.037833  -0.002047
 1474.0    0.037856  -0.002048
 1475.0    0.037880  -0.002049
 1476.0    0.037901  -0.002050
 1477.0    0.037923  -0.002051
 1478.0    0.037945  -0.002052
 1479.0    0.037967  -0.002053
 1480.0    0.037989  -0.002054
 1481.0    0.038009  -0.002055
 1482.0    0.038029  -0.002056
 1483.0    0.038050  -0.002057
 1484.0    0.038070  -0.002058
 1485.0    0.038090  -0.002059
 1486.0    0.038109  -0.002060
 1487.0    0.038128  -0.002061
 1488.0    0.038147  -0.002061
 1489.0    0.038166  -0.002062
 1490.0    0.038185  -0.002063
 1491.0    0.038202  -0.002064
 1492.0    0.038220  -0.002065
 1493.0    0.038237  -0.002065
 1494.0    0.038255  -0.002066
 1495.0    0.038272  -0.002067
 1496.0    0.038288  -0.002067
 1497.0    0.038304  -0.002068
 1498.0    0.038321  -0.002069
 1499.0    0.038337  -0.002069
 1500.0    0.038353  -0.002070
 1501.0    0.038368  -0.002071
 1502.0    0.038384  -0.002072
 1503.0    0.038399  -0.002073
 1504.0    0.038415  -0.002074
 1505.0    0.038430  -0.002075
 1506.0    0.038443  -0.002075
 1507.0    0.038456  -0.002075
 1508.0    0.038469  -0.002075
 1509.0    0.038482  -0.002075
 1510.0    0.038494  -0.002075
 1511.0    0.038507  -0.002075
 1512.0    0.038519  -0.002076
 1513.0    0.038531  -0.002076
 1514.0    0.038544  -0.002077
 1515.0    0.038556  -0.002077
 1516.0    0.038567  -0.002077
 1517.0    0.038578  -0.002078
 1518.0    0.038589  -0.002078
 1519.0    0.038601  -0.002078
 1520.0    0.038612  -0.002079
 1521.0    0.038622  -0.002079
 1522.0    0.038632  -0.002079
 1523.0    0.038642  -0.002079
 1524.0    0.038651  -0.002080
 1525.0    0.038661  -0.002080
 1526.0    0.038670  -0.002080
 1527.0    0.038679  -0.002080
 1528.0    0.038688  -0.002080
 1529.0    0.038697  -0.002080
 1530.0    0.038705  -0.002081
 1531.0    0.038713  -0.002081
 1532.0    0.038721  -0.002081
 1533.0    0.038729  -0.002081
 1534.0    0.038736  -0.002081
 1535.0    0.038744  -0.002081
 1536.0    0.038751  -0.002081
 1537.0    0.038757  -0.002081
 1538.0    0.038764  -0.002081
 1539.0    0.038771  -0.002081
 1540.0    0.038777  -0.002081
 1541.0    0.038783  -0.002081
 1542.0    0.038789  -0.002081
 1543.0    0.038794  -0.002081
 1544.0    0.038800  -0.002081
 1545.0    0.038805  -0.002081
 1546.0    0.038810  -0.002080
 1547.0    0.038815  -0.002080
 1548.0    0.038819  -0.002080
 1549.0    0.038824  -0.002080
 1550.0    0.038829  -0.002080
 1551.0    0.038832  -0.002080
 1552.0    0.038836  -0.002079
 1553.0    0.038840  -0.002079
 1554.0    0.038843  -0.002079
 1555.0    0.038847  -0.002079
 1556.0    0.038850  -0.002078
 1557.0    0.038852  -0.002078
 1558.0    0.038855  -0.002078
 1559.0    0.038858  -0.002078
 1560.0    0.038860  -0.002077
 1561.0    0.038862  -0.002077
 1562.0    0.038864  -0.002077
 1563.0    0.038866  -0.002076
 1564.0    0.038867  -0.002076
 1565.0    0.038869  -0.002076
 1566.0    0.038870  -0.002075
 1567.0    0.038871  -0.002075
 1568.0    0.038872  -0.002074
 1569.0    0.038873  -0.002074
 1570.0    0.038874  -0.002073
 1571.0    0.038874  -0.002073
 1572.0    0.038874  -0.002072
 1573.0    0.038874  -0.002072
 1574.0    0.038874  -0.002071
 1575.0    0.038874  -0.002071
 1576.0    0.038873  -0.002070
 1577.0    0.038872  -0.002070
 1578.0    0.038872  -0.002069
 1579.0    0.038871  -0.002069
 1580.0    0.038870  -0.002068
 1581.0    0.038868  -0.002068
 1582.0    0.038867  -0.002067
 1583.0    0.038865  -0.002066
 1584.0    0.038864  -0.002066
 1585.0    0.038862  -0.002065
 1586.0    0.038860  -0.002065
 1587.0    0.038857  -0.002064
 1588.0    0.038855  -0.002063
 1589.0    0.038852  -0.002063
 1590.0    0.038850  -0.002062
 1591.0    0.038847  -0.002061
 1592.0    0.038844  -0.002060
 1593.0    0.038841  -0.002060
 1594.0    0.038837  -0.002059
 1595.0    0.038834  -0.002058
 1596.0    0.038830  -0.002057
 1597.0    0.038827  -0.002057
 1598.0    0.038823  -0.002056
 1599.0    0.038819  -0.002055
 1600.0    0.038815  -0.002054
 1601.0    0.038810  -0.002053
 1602.0    0.038806  -0.002052
 1603.0    0.038801  -0.002051
 1604.0    0.038796  -0.002051
 1605.0    0.038791  -0.002050
 1606.0    0.038786  -0.002049
 1607.0    0.038781  -0.002048
 1608.0    0.038776  -0.002047
 1609.0    0.038770  -0.002046
 1610.0    0.038765  -0.002045
 1611.0    0.038759  -0.002044
 1612.0    0.038753  -0.002044
 1613.0    0.038747  -0.002043
 1614.0    0.038741  -0.002042
 1615.0    0.038735  -0.002041
 1616.0    0.038729  -0.002040
 1617.0    0.038722  -0.002039
 1618.0    0.038716  -0.002038
 1619.0    0.038709  -0.002037
 1620.0    0.038702  -0.002036
 1621.0    0.038695  -0.002035
 1622.0    0.038688  -0.002034
 1623.0    0.038681  -0.002033
 1624.0    0.038673  -0.002032
 1625.0    0.038666  -0.002030
 1626.0    0.038658  -0.002029
 1627.0    0.038650  -0.002028
 1628.0    0.038642  -0.002027
 1629.0    0.038635  -0.002026
 1630.0    0.038627  -0.002025
 1631.0    0.038618  -0.002024
 1632.0    0.038610  -0.002023
 1633.0    0.038601  -0.002022
 1634.0    0.038593  -0.002020
 1635.0    0.038584  -0.002019
 1636.0    0.038575  -0.002018
 1637.0    0.038566  -0.002017
 1638.0    0.038557  -0.002016
 1639.0    0.038548  -0.002015
 1640.0    0.038539  -0.002013
 1641.0    0.038530  -0.002012
 1642.0    0.038520  -0.002011
 1643.0    0.038510  -0.002010
 1644.0    0.038501  -0.002008
 1645.0    0.038491  -0.002007
 1646.0    0.038481  -0.002006
 1647.0    0.038471  -0.002005
 1648.0    0.038461  -0.002003
 1649.0    0.038451  -0.002002
 1650.0    0.038440  -0.002001
 1651.0    0.038430  -0.002000
 1652.0    0.038419  -0.001998
 1653.0    0.038408  -0.001997
 1654.0    0.038398  -0.001996
 1655.0    0.038387  -0.001994
 1656.0    0.038376  -0.001993
 1657.0    0.038365  -0.001992
 1658.0    0.038354  -0.001990
 1659.0    0.038342  -0.001989
 1660.0    0.038331  -0.001988
 1661.0    0.038320  -0.001986
 1662.0    0.038308  -0.001985
 1663.0    0.038296  -0.001984
 1664.0    0.038285  -0.001982
 1665.0    0.038273  -0.001981
 1666.0    0.038261  -0.001979
 1667.0    0.038249  -0.001978
 1668.0    0.038237  -0.001977
 1669.0    0.038224  -0.001975
 1670.0    0.038212  -0.001974
 1671.0    0.038200  -0.001972
 1672.0    0.038187  -0.001971
 1673.0    0.038174  -0.001970
 1674.0    0.038162  -0.001968
 1675.0    0.038149  -0.001967
 1676.0    0.038136  -0.001965
 1677.0    0.038123  -0.001964
 1678.0    0.038110  -0.001962
 1679.0    0.038097  -0.001961
 1680.0    0.038084  -0.001959
 1681.0    0.038070  -0.001958
 1682.0    0.038057  -0.001956
 1683.0    0.038043  -0.001955
 1684.0    0.038030  -0.001954
 1685.0    0.038017  -0.001952
 1686.0    0.038003  -0.001951
 1687.0    0.037989  -0.001949
 1688.0    0.037975  -0.001948
 1689.0    0.037961  -0.001946
 1690.0    0.037947  -0.001945
 1691.0    0.037933  -0.001943
 1692.0    0.037918  -0.001942
 1693.0    0.037904  -0.001940
 1694.0    0.037890  -0.001938
 1695.0    0.037875  -0.001937
 1696.0    0.037861  -0.001935
 1697.0    0.037846  -0.001934
 1698.0    0.037831  -0.001932
 1699.0    0.037817  -0.001931
 1700.0    0.037802  -0.001929
 1701.0    0.037787  -0.001928
 1702.0    0.037772  -0.001926
 1703.0    0.037757  -0.001925
 1704.0    0.037742  -0.001923
 1705.0    0.037727  -0.001921
 1706.0    0.037711  -0.001920
 1707.0    0.037696  -0.001918
 1708.0    0.037680  -0.001917
 1709.0    0.037665  -0.001915
 1710.0    0.037649  -0.001914
 1711.0    0.037634  -0.001912
 1712.0    0.037618  -0.001911
 1713.0    0.037602  -0.001909
 1714.0    0.037586  -0.001907
 1715.0    0.037570  -0.001906
 1716.0    0.037554  -0.001904
 1717.0    0.037538  -0.001903
 1718.0    0.037522  -0.001901
 1719.0    0.037506  -0.001899
 1720.0    0.037490  -0.001898
 1721.0    0.037473  -0.001896
 1722.0    0.037457  -0.001895
