   W         E8+(pi+_n)
 (MeV)      Re         Im
 1081.0    0.000000  -0.000000
 1082.0    0.000000  -0.000000
 1083.0    0.000000  -0.000000
 1084.0    0.000000  -0.000000
 1085.0    0.000000  -0.000000
 1086.0    0.000000  -0.000000
 1087.0    0.000001  -0.000000
 1088.0    0.000001  -0.000000
 1089.0    0.000001  -0.000000
 1090.0    0.000001  -0.000000
 1091.0    0.000002  -0.000000
 1092.0    0.000002  -0.000000
 1093.0    0.000003  -0.000000
 1094.0    0.000004  -0.000000
 1095.0    0.000005  -0.000000
 1096.0    0.000006  -0.000000
 1097.0    0.000008  -0.000000
 1098.0    0.000009  -0.000000
 1099.0    0.000011  -0.000001
 1100.0    0.000012  -0.000001
 1101.0    0.000015  -0.000001
 1102.0    0.000018  -0.000001
 1103.0    0.000021  -0.000001
 1104.0    0.000023  -0.000001
 1105.0    0.000026  -0.000001
 1106.0    0.000030  -0.000002
 1107.0    0.000035  -0.000002
 1108.0    0.000039  -0.000002
 1109.0    0.000043  -0.000002
 1110.0    0.000048  -0.000003
 1111.0    0.000054  -0.000003
 1112.0    0.000060  -0.000003
 1113.0    0.000066  -0.000004
 1114.0    0.000073  -0.000004
 1115.0    0.000079  -0.000004
 1116.0    0.000087  -0.000005
 1117.0    0.000095  -0.000005
 1118.0    0.000104  -0.000006
 1119.0    0.000112  -0.000006
 1120.0    0.000120  -0.000007
 1121.0    0.000131  -0.000007
 1122.0    0.000142  -0.000008
 1123.0    0.000152  -0.000008
 1124.0    0.000163  -0.000009
 1125.0    0.000174  -0.000009
 1126.0    0.000187  -0.000010
 1127.0    0.000200  -0.000011
 1128.0    0.000213  -0.000012
 1129.0    0.000226  -0.000012
 1130.0    0.000239  -0.000013
 1131.0    0.000254  -0.000014
 1132.0    0.000270  -0.000015
 1133.0    0.000286  -0.000016
 1134.0    0.000301  -0.000016
 1135.0    0.000317  -0.000017
 1136.0    0.000335  -0.000018
 1137.0    0.000353  -0.000019
 1138.0    0.000371  -0.000020
 1139.0    0.000389  -0.000021
 1140.0    0.000408  -0.000022
 1141.0    0.000428  -0.000023
 1142.0    0.000449  -0.000024
 1143.0    0.000470  -0.000026
 1144.0    0.000490  -0.000027
 1145.0    0.000511  -0.000028
 1146.0    0.000534  -0.000029
 1147.0    0.000558  -0.000030
 1148.0    0.000581  -0.000032
 1149.0    0.000604  -0.000033
 1150.0    0.000627  -0.000034
 1151.0    0.000653  -0.000035
 1152.0    0.000679  -0.000037
 1153.0    0.000704  -0.000038
 1154.0    0.000730  -0.000040
 1155.0    0.000756  -0.000041
 1156.0    0.000784  -0.000043
 1157.0    0.000812  -0.000044
 1158.0    0.000840  -0.000046
 1159.0    0.000868  -0.000047
 1160.0    0.000896  -0.000049
 1161.0    0.000926  -0.000050
 1162.0    0.000957  -0.000052
 1163.0    0.000987  -0.000054
 1164.0    0.001017  -0.000055
 1165.0    0.001048  -0.000057
 1166.0    0.001080  -0.000059
 1167.0    0.001113  -0.000060
 1168.0    0.001145  -0.000062
 1169.0    0.001178  -0.000064
 1170.0    0.001210  -0.000066
 1171.0    0.001245  -0.000068
 1172.0    0.001279  -0.000069
 1173.0    0.001313  -0.000071
 1174.0    0.001348  -0.000073
 1175.0    0.001382  -0.000075
 1176.0    0.001419  -0.000077
 1177.0    0.001455  -0.000079
 1178.0    0.001492  -0.000081
 1179.0    0.001528  -0.000083
 1180.0    0.001564  -0.000085
 1181.0    0.001602  -0.000087
 1182.0    0.001640  -0.000089
 1183.0    0.001679  -0.000091
 1184.0    0.001717  -0.000093
 1185.0    0.001755  -0.000095
 1186.0    0.001794  -0.000097
 1187.0    0.001834  -0.000100
 1188.0    0.001874  -0.000102
 1189.0    0.001913  -0.000104
 1190.0    0.001953  -0.000106
 1191.0    0.001994  -0.000108
 1192.0    0.002035  -0.000111
 1193.0    0.002076  -0.000113
 1194.0    0.002118  -0.000115
 1195.0    0.002159  -0.000117
 1196.0    0.002201  -0.000120
 1197.0    0.002244  -0.000122
 1198.0    0.002286  -0.000124
 1199.0    0.002328  -0.000127
 1200.0    0.002371  -0.000129
 1201.0    0.002414  -0.000131
 1202.0    0.002458  -0.000134
 1203.0    0.002502  -0.000136
 1204.0    0.002545  -0.000138
 1205.0    0.002589  -0.000141
 1206.0    0.002633  -0.000143
 1207.0    0.002678  -0.000145
 1208.0    0.002723  -0.000148
 1209.0    0.002767  -0.000150
 1210.0    0.002812  -0.000153
 1211.0    0.002857  -0.000155
 1212.0    0.002903  -0.000158
 1213.0    0.002948  -0.000160
 1214.0    0.002994  -0.000163
 1215.0    0.003039  -0.000165
 1216.0    0.003085  -0.000168
 1217.0    0.003132  -0.000170
 1218.0    0.003178  -0.000173
 1219.0    0.003224  -0.000175
 1220.0    0.003270  -0.000178
 1221.0    0.003317  -0.000180
 1222.0    0.003364  -0.000183
 1223.0    0.003411  -0.000185
 1224.0    0.003458  -0.000188
 1225.0    0.003505  -0.000190
 1226.0    0.003552  -0.000193
 1227.0    0.003600  -0.000196
 1228.0    0.003647  -0.000198
 1229.0    0.003695  -0.000201
 1230.0    0.003742  -0.000203
 1231.0    0.003790  -0.000206
 1232.0    0.003838  -0.000209
 1233.0    0.003885  -0.000211
 1234.0    0.003933  -0.000214
 1235.0    0.003981  -0.000216
 1236.0    0.004029  -0.000219
 1237.0    0.004077  -0.000222
 1238.0    0.004125  -0.000224
 1239.0    0.004173  -0.000227
 1240.0    0.004222  -0.000229
 1241.0    0.004270  -0.000232
 1242.0    0.004318  -0.000235
 1243.0    0.004367  -0.000237
 1244.0    0.004415  -0.000240
 1245.0    0.004463  -0.000242
 1246.0    0.004512  -0.000245
 1247.0    0.004560  -0.000248
 1248.0    0.004609  -0.000250
 1249.0    0.004657  -0.000253
 1250.0    0.004705  -0.000256
 1251.0    0.004754  -0.000258
 1252.0    0.004802  -0.000261
 1253.0    0.004851  -0.000264
 1254.0    0.004899  -0.000266
 1255.0    0.004948  -0.000269
 1256.0    0.004996  -0.000271
 1257.0    0.005044  -0.000274
 1258.0    0.005093  -0.000277
 1259.0    0.005141  -0.000279
 1260.0    0.005190  -0.000282
 1261.0    0.005238  -0.000285
 1262.0    0.005286  -0.000287
 1263.0    0.005335  -0.000290
 1264.0    0.005383  -0.000292
 1265.0    0.005431  -0.000295
 1266.0    0.005479  -0.000298
 1267.0    0.005527  -0.000300
 1268.0    0.005575  -0.000303
 1269.0    0.005623  -0.000305
 1270.0    0.005671  -0.000308
 1271.0    0.005719  -0.000310
 1272.0    0.005767  -0.000313
 1273.0    0.005815  -0.000316
 1274.0    0.005863  -0.000318
 1275.0    0.005910  -0.000321
 1276.0    0.005958  -0.000324
 1277.0    0.006005  -0.000326
 1278.0    0.006053  -0.000329
 1279.0    0.006101  -0.000332
 1280.0    0.006148  -0.000334
 1281.0    0.006195  -0.000337
 1282.0    0.006242  -0.000339
 1283.0    0.006289  -0.000342
 1284.0    0.006336  -0.000344
 1285.0    0.006384  -0.000347
 1286.0    0.006430  -0.000349
 1287.0    0.006477  -0.000352
 1288.0    0.006523  -0.000354
 1289.0    0.006570  -0.000357
 1290.0    0.006616  -0.000359
 1291.0    0.006663  -0.000362
 1292.0    0.006709  -0.000364
 1293.0    0.006755  -0.000367
 1294.0    0.006801  -0.000369
 1295.0    0.006848  -0.000372
 1296.0    0.006893  -0.000375
 1297.0    0.006939  -0.000377
 1298.0    0.006985  -0.000380
 1299.0    0.007030  -0.000382
 1300.0    0.007076  -0.000385
 1301.0    0.007121  -0.000387
 1302.0    0.007166  -0.000389
 1303.0    0.007211  -0.000392
 1304.0    0.007256  -0.000394
 1305.0    0.007301  -0.000396
 1306.0    0.007346  -0.000399
 1307.0    0.007391  -0.000401
 1308.0    0.007435  -0.000404
 1309.0    0.007480  -0.000406
 1310.0    0.007524  -0.000409
 1311.0    0.007568  -0.000411
 1312.0    0.007612  -0.000414
 1313.0    0.007656  -0.000416
 1314.0    0.007700  -0.000418
 1315.0    0.007744  -0.000421
 1316.0    0.007787  -0.000423
 1317.0    0.007831  -0.000425
 1318.0    0.007874  -0.000428
 1319.0    0.007917  -0.000430
 1320.0    0.007960  -0.000432
 1321.0    0.008003  -0.000435
 1322.0    0.008046  -0.000437
 1323.0    0.008089  -0.000440
 1324.0    0.008131  -0.000442
 1325.0    0.008174  -0.000445
 1326.0    0.008216  -0.000447
 1327.0    0.008258  -0.000449
 1328.0    0.008300  -0.000451
 1329.0    0.008341  -0.000453
 1330.0    0.008383  -0.000456
 1331.0    0.008424  -0.000458
 1332.0    0.008466  -0.000460
 1333.0    0.008507  -0.000462
 1334.0    0.008548  -0.000464
 1335.0    0.008589  -0.000467
 1336.0    0.008630  -0.000469
 1337.0    0.008670  -0.000471
 1338.0    0.008711  -0.000473
 1339.0    0.008751  -0.000475
 1340.0    0.008792  -0.000478
 1341.0    0.008831  -0.000480
 1342.0    0.008871  -0.000482
 1343.0    0.008911  -0.000484
 1344.0    0.008951  -0.000486
 1345.0    0.008990  -0.000488
 1346.0    0.009029  -0.000491
 1347.0    0.009068  -0.000493
 1348.0    0.009107  -0.000495
 1349.0    0.009146  -0.000497
 1350.0    0.009185  -0.000499
 1351.0    0.009223  -0.000501
 1352.0    0.009262  -0.000503
 1353.0    0.009300  -0.000505
 1354.0    0.009338  -0.000507
 1355.0    0.009377  -0.000510
 1356.0    0.009414  -0.000512
 1357.0    0.009452  -0.000514
 1358.0    0.009489  -0.000516
 1359.0    0.009527  -0.000518
 1360.0    0.009564  -0.000520
 1361.0    0.009601  -0.000522
 1362.0    0.009637  -0.000524
 1363.0    0.009674  -0.000526
 1364.0    0.009711  -0.000528
 1365.0    0.009748  -0.000530
 1366.0    0.009783  -0.000532
 1367.0    0.009819  -0.000534
 1368.0    0.009855  -0.000536
 1369.0    0.009891  -0.000537
 1370.0    0.009927  -0.000539
 1371.0    0.009962  -0.000541
 1372.0    0.009998  -0.000543
 1373.0    0.010033  -0.000545
 1374.0    0.010068  -0.000547
 1375.0    0.010103  -0.000549
 1376.0    0.010137  -0.000551
 1377.0    0.010172  -0.000553
 1378.0    0.010206  -0.000555
 1379.0    0.010241  -0.000556
 1380.0    0.010275  -0.000558
 1381.0    0.010309  -0.000560
 1382.0    0.010342  -0.000562
 1383.0    0.010376  -0.000564
 1384.0    0.010409  -0.000566
 1385.0    0.010443  -0.000568
 1386.0    0.010476  -0.000569
 1387.0    0.010508  -0.000571
 1388.0    0.010541  -0.000573
 1389.0    0.010574  -0.000574
 1390.0    0.010607  -0.000576
 1391.0    0.010639  -0.000578
 1392.0    0.010671  -0.000580
 1393.0    0.010703  -0.000581
 1394.0    0.010735  -0.000583
 1395.0    0.010767  -0.000585
 1396.0    0.010798  -0.000587
 1397.0    0.010830  -0.000588
 1398.0    0.010861  -0.000590
 1399.0    0.010892  -0.000592
 1400.0    0.010923  -0.000594
 1401.0    0.010954  -0.000595
 1402.0    0.010984  -0.000597
 1403.0    0.011015  -0.000598
 1404.0    0.011045  -0.000600
 1405.0    0.011076  -0.000602
 1406.0    0.011106  -0.000603
 1407.0    0.011135  -0.000605
 1408.0    0.011165  -0.000607
 1409.0    0.011195  -0.000608
 1410.0    0.011225  -0.000610
 1411.0    0.011254  -0.000611
 1412.0    0.011283  -0.000613
 1413.0    0.011312  -0.000615
 1414.0    0.011341  -0.000616
 1415.0    0.011370  -0.000618
 1416.0    0.011398  -0.000619
 1417.0    0.011426  -0.000621
 1418.0    0.011454  -0.000622
 1419.0    0.011482  -0.000624
 1420.0    0.011511  -0.000625
 1421.0    0.011538  -0.000627
 1422.0    0.011566  -0.000628
 1423.0    0.011593  -0.000630
 1424.0    0.011621  -0.000631
 1425.0    0.011648  -0.000633
 1426.0    0.011675  -0.000634
 1427.0    0.011702  -0.000636
 1428.0    0.011728  -0.000637
 1429.0    0.011755  -0.000639
 1430.0    0.011782  -0.000640
 1431.0    0.011808  -0.000642
 1432.0    0.011834  -0.000643
 1433.0    0.011860  -0.000644
 1434.0    0.011886  -0.000646
 1435.0    0.011912  -0.000647
 1436.0    0.011937  -0.000649
 1437.0    0.011963  -0.000650
 1438.0    0.011988  -0.000651
 1439.0    0.012013  -0.000653
 1440.0    0.012038  -0.000654
 1441.0    0.012063  -0.000656
 1442.0    0.012088  -0.000657
 1443.0    0.012112  -0.000658
 1444.0    0.012137  -0.000660
 1445.0    0.012161  -0.000661
 1446.0    0.012185  -0.000662
 1447.0    0.012209  -0.000663
 1448.0    0.012233  -0.000665
 1449.0    0.012257  -0.000666
 1450.0    0.012281  -0.000667
 1451.0    0.012304  -0.000669
 1452.0    0.012327  -0.000670
 1453.0    0.012350  -0.000671
 1454.0    0.012373  -0.000672
 1455.0    0.012397  -0.000674
 1456.0    0.012419  -0.000675
 1457.0    0.012442  -0.000676
 1458.0    0.012464  -0.000677
 1459.0    0.012487  -0.000679
 1460.0    0.012509  -0.000680
 1461.0    0.012531  -0.000681
 1462.0    0.012553  -0.000682
 1463.0    0.012575  -0.000683
 1464.0    0.012597  -0.000685
 1465.0    0.012618  -0.000686
 1466.0    0.012640  -0.000687
 1467.0    0.012661  -0.000688
 1468.0    0.012682  -0.000689
 1469.0    0.012703  -0.000690
 1470.0    0.012724  -0.000692
 1471.0    0.012745  -0.000693
 1472.0    0.012765  -0.000694
 1473.0    0.012786  -0.000695
 1474.0    0.012806  -0.000696
 1475.0    0.012827  -0.000697
 1476.0    0.012847  -0.000698
 1477.0    0.012866  -0.000699
 1478.0    0.012886  -0.000700
 1479.0    0.012906  -0.000701
 1480.0    0.012926  -0.000703
 1481.0    0.012945  -0.000704
 1482.0    0.012965  -0.000705
 1483.0    0.012984  -0.000706
 1484.0    0.013003  -0.000707
 1485.0    0.013022  -0.000708
 1486.0    0.013041  -0.000709
 1487.0    0.013059  -0.000710
 1488.0    0.013078  -0.000711
 1489.0    0.013097  -0.000712
 1490.0    0.013115  -0.000713
 1491.0    0.013133  -0.000714
 1492.0    0.013151  -0.000715
 1493.0    0.013169  -0.000716
 1494.0    0.013187  -0.000717
 1495.0    0.013205  -0.000718
 1496.0    0.013223  -0.000719
 1497.0    0.013240  -0.000720
 1498.0    0.013257  -0.000721
 1499.0    0.013275  -0.000721
 1500.0    0.013292  -0.000722
 1501.0    0.013309  -0.000723
 1502.0    0.013325  -0.000724
 1503.0    0.013341  -0.000724
 1504.0    0.013358  -0.000725
 1505.0    0.013374  -0.000725
 1506.0    0.013391  -0.000726
 1507.0    0.013407  -0.000728
 1508.0    0.013424  -0.000729
 1509.0    0.013441  -0.000730
 1510.0    0.013458  -0.000732
 1511.0    0.013473  -0.000732
 1512.0    0.013489  -0.000733
 1513.0    0.013504  -0.000734
 1514.0    0.013520  -0.000735
 1515.0    0.013536  -0.000736
 1516.0    0.013551  -0.000737
 1517.0    0.013566  -0.000737
 1518.0    0.013581  -0.000738
 1519.0    0.013596  -0.000739
 1520.0    0.013611  -0.000740
 1521.0    0.013626  -0.000741
 1522.0    0.013640  -0.000742
 1523.0    0.013655  -0.000742
 1524.0    0.013669  -0.000743
 1525.0    0.013684  -0.000744
 1526.0    0.013698  -0.000745
 1527.0    0.013712  -0.000745
 1528.0    0.013726  -0.000746
 1529.0    0.013740  -0.000747
 1530.0    0.013754  -0.000748
 1531.0    0.013767  -0.000748
 1532.0    0.013781  -0.000749
 1533.0    0.013794  -0.000750
 1534.0    0.013808  -0.000751
 1535.0    0.013821  -0.000751
 1536.0    0.013834  -0.000752
 1537.0    0.013847  -0.000753
 1538.0    0.013860  -0.000754
 1539.0    0.013873  -0.000754
 1540.0    0.013886  -0.000755
 1541.0    0.013899  -0.000756
 1542.0    0.013911  -0.000756
 1543.0    0.013924  -0.000757
 1544.0    0.013936  -0.000758
 1545.0    0.013948  -0.000758
 1546.0    0.013960  -0.000759
 1547.0    0.013972  -0.000760
 1548.0    0.013984  -0.000760
 1549.0    0.013996  -0.000761
 1550.0    0.014008  -0.000762
 1551.0    0.014020  -0.000762
 1552.0    0.014031  -0.000763
 1553.0    0.014043  -0.000763
 1554.0    0.014054  -0.000764
 1555.0    0.014066  -0.000765
 1556.0    0.014077  -0.000765
 1557.0    0.014088  -0.000766
 1558.0    0.014099  -0.000767
 1559.0    0.014110  -0.000767
 1560.0    0.014121  -0.000768
 1561.0    0.014131  -0.000768
 1562.0    0.014142  -0.000769
 1563.0    0.014152  -0.000769
 1564.0    0.014163  -0.000770
 1565.0    0.014173  -0.000771
 1566.0    0.014183  -0.000771
 1567.0    0.014193  -0.000772
 1568.0    0.014203  -0.000772
 1569.0    0.014214  -0.000773
 1570.0    0.014224  -0.000773
 1571.0    0.014233  -0.000774
 1572.0    0.014243  -0.000774
 1573.0    0.014252  -0.000775
 1574.0    0.014262  -0.000775
 1575.0    0.014272  -0.000776
 1576.0    0.014281  -0.000777
 1577.0    0.014290  -0.000777
 1578.0    0.014299  -0.000778
 1579.0    0.014308  -0.000778
 1580.0    0.014318  -0.000779
 1581.0    0.014326  -0.000779
 1582.0    0.014335  -0.000779
 1583.0    0.014344  -0.000780
 1584.0    0.014353  -0.000780
 1585.0    0.014361  -0.000781
 1586.0    0.014370  -0.000781
 1587.0    0.014378  -0.000782
 1588.0    0.014386  -0.000782
 1589.0    0.014395  -0.000783
 1590.0    0.014403  -0.000783
 1591.0    0.014411  -0.000784
 1592.0    0.014419  -0.000784
 1593.0    0.014427  -0.000784
 1594.0    0.014435  -0.000785
 1595.0    0.014443  -0.000785
 1596.0    0.014450  -0.000786
 1597.0    0.014458  -0.000786
 1598.0    0.014465  -0.000787
 1599.0    0.014473  -0.000787
 1600.0    0.014480  -0.000787
 1601.0    0.014487  -0.000788
 1602.0    0.014495  -0.000788
 1603.0    0.014502  -0.000789
 1604.0    0.014509  -0.000789
 1605.0    0.014516  -0.000789
 1606.0    0.014523  -0.000790
 1607.0    0.014529  -0.000790
 1608.0    0.014536  -0.000790
 1609.0    0.014543  -0.000791
 1610.0    0.014550  -0.000791
 1611.0    0.014556  -0.000791
 1612.0    0.014562  -0.000792
 1613.0    0.014569  -0.000792
 1614.0    0.014575  -0.000793
 1615.0    0.014581  -0.000793
 1616.0    0.014587  -0.000793
 1617.0    0.014593  -0.000794
 1618.0    0.014599  -0.000794
 1619.0    0.014605  -0.000794
 1620.0    0.014611  -0.000794
 1621.0    0.014617  -0.000795
 1622.0    0.014623  -0.000795
 1623.0    0.014628  -0.000795
 1624.0    0.014634  -0.000796
 1625.0    0.014640  -0.000796
 1626.0    0.014645  -0.000796
 1627.0    0.014650  -0.000797
 1628.0    0.014656  -0.000797
 1629.0    0.014661  -0.000797
 1630.0    0.014666  -0.000797
 1631.0    0.014671  -0.000798
 1632.0    0.014676  -0.000798
 1633.0    0.014681  -0.000798
 1634.0    0.014686  -0.000798
 1635.0    0.014691  -0.000799
 1636.0    0.014696  -0.000799
 1637.0    0.014700  -0.000799
 1638.0    0.014705  -0.000799
 1639.0    0.014709  -0.000800
 1640.0    0.014714  -0.000800
 1641.0    0.014718  -0.000800
 1642.0    0.014723  -0.000800
 1643.0    0.014727  -0.000801
 1644.0    0.014731  -0.000801
 1645.0    0.014735  -0.000801
 1646.0    0.014739  -0.000801
 1647.0    0.014743  -0.000802
 1648.0    0.014747  -0.000802
 1649.0    0.014751  -0.000802
 1650.0    0.014755  -0.000802
 1651.0    0.014759  -0.000802
 1652.0    0.014763  -0.000803
 1653.0    0.014766  -0.000803
 1654.0    0.014770  -0.000803
 1655.0    0.014774  -0.000803
 1656.0    0.014777  -0.000803
 1657.0    0.014780  -0.000803
 1658.0    0.014784  -0.000804
 1659.0    0.014787  -0.000804
 1660.0    0.014790  -0.000804
 1661.0    0.014793  -0.000804
 1662.0    0.014796  -0.000804
 1663.0    0.014799  -0.000804
 1664.0    0.014803  -0.000805
 1665.0    0.014806  -0.000805
 1666.0    0.014808  -0.000805
 1667.0    0.014811  -0.000805
 1668.0    0.014814  -0.000805
 1669.0    0.014817  -0.000805
 1670.0    0.014819  -0.000805
 1671.0    0.014822  -0.000806
 1672.0    0.014824  -0.000806
 1673.0    0.014827  -0.000806
 1674.0    0.014829  -0.000806
 1675.0    0.014832  -0.000806
 1676.0    0.014834  -0.000806
 1677.0    0.014836  -0.000806
 1678.0    0.014838  -0.000806
 1679.0    0.014841  -0.000806
 1680.0    0.014843  -0.000806
 1681.0    0.014845  -0.000807
 1682.0    0.014847  -0.000807
 1683.0    0.014849  -0.000807
 1684.0    0.014850  -0.000807
 1685.0    0.014852  -0.000807
 1686.0    0.014854  -0.000807
 1687.0    0.014856  -0.000807
 1688.0    0.014857  -0.000807
 1689.0    0.014859  -0.000807
 1690.0    0.014861  -0.000807
 1691.0    0.014862  -0.000807
 1692.0    0.014864  -0.000807
 1693.0    0.014865  -0.000807
 1694.0    0.014866  -0.000807
 1695.0    0.014868  -0.000808
 1696.0    0.014869  -0.000808
 1697.0    0.014870  -0.000808
 1698.0    0.014871  -0.000808
 1699.0    0.014872  -0.000808
 1700.0    0.014874  -0.000808
 1701.0    0.014874  -0.000808
 1702.0    0.014875  -0.000808
 1703.0    0.014876  -0.000808
 1704.0    0.014877  -0.000808
 1705.0    0.014878  -0.000808
 1706.0    0.014879  -0.000808
 1707.0    0.014879  -0.000808
 1708.0    0.014880  -0.000808
 1709.0    0.014881  -0.000808
 1710.0    0.014881  -0.000808
 1711.0    0.014882  -0.000808
 1712.0    0.014882  -0.000808
 1713.0    0.014883  -0.000808
 1714.0    0.014883  -0.000808
 1715.0    0.014884  -0.000808
 1716.0    0.014884  -0.000808
 1717.0    0.014884  -0.000808
 1718.0    0.014884  -0.000808
 1719.0    0.014884  -0.000808
 1720.0    0.014885  -0.000808
 1721.0    0.014885  -0.000808
 1722.0    0.014885  -0.000808
 1723.0    0.014885  -0.000808
