   W         M1-(pi+_n)
 (MeV)      Re         Im
 1080.0    0.671237  -0.163140
 1081.0    0.874792  -0.214692
 1082.0    1.078346  -0.266244
 1083.0    1.281900  -0.317796
 1084.0    1.485455  -0.369348
 1085.0    1.689009  -0.420900
 1086.0    1.795788  -0.450083
 1087.0    1.902567  -0.479266
 1088.0    2.009346  -0.508449
 1089.0    2.116124  -0.537632
 1090.0    2.222903  -0.566815
 1091.0    2.298196  -0.588831
 1092.0    2.373489  -0.610847
 1093.0    2.448782  -0.632864
 1094.0    2.524076  -0.654880
 1095.0    2.599369  -0.676896
 1096.0    2.656886  -0.694785
 1097.0    2.714402  -0.712674
 1098.0    2.771919  -0.730563
 1099.0    2.829436  -0.748452
 1100.0    2.886953  -0.766340
 1101.0    2.932645  -0.781370
 1102.0    2.978336  -0.796399
 1103.0    3.024028  -0.811428
 1104.0    3.069720  -0.826457
 1105.0    3.115411  -0.841487
 1106.0    3.152567  -0.854334
 1107.0    3.189724  -0.867182
 1108.0    3.226880  -0.880030
 1109.0    3.264036  -0.892878
 1110.0    3.301192  -0.905726
 1111.0    3.331884  -0.916809
 1112.0    3.362576  -0.927892
 1113.0    3.393268  -0.938975
 1114.0    3.423961  -0.950059
 1115.0    3.454653  -0.961142
 1116.0    3.480295  -0.970741
 1117.0    3.505937  -0.980341
 1118.0    3.531579  -0.989940
 1119.0    3.557221  -0.999540
 1120.0    3.582863  -1.009139
 1121.0    3.604477  -1.017457
 1122.0    3.626091  -1.025774
 1123.0    3.647705  -1.034092
 1124.0    3.669319  -1.042409
 1125.0    3.690933  -1.050727
 1126.0    3.709285  -1.057915
 1127.0    3.727638  -1.065103
 1128.0    3.745991  -1.072291
 1129.0    3.764344  -1.079480
 1130.0    3.782697  -1.086668
 1131.0    3.798383  -1.092846
 1132.0    3.814068  -1.099025
 1133.0    3.829753  -1.105203
 1134.0    3.845439  -1.111382
 1135.0    3.861124  -1.117561
 1136.0    3.874611  -1.122826
 1137.0    3.888098  -1.128092
 1138.0    3.901585  -1.133358
 1139.0    3.915072  -1.138624
 1140.0    3.928559  -1.143890
 1141.0    3.940225  -1.148323
 1142.0    3.951892  -1.152756
 1143.0    3.963558  -1.157189
 1144.0    3.975225  -1.161622
 1145.0    3.986892  -1.166056
 1146.0    3.997047  -1.169724
 1147.0    4.007202  -1.173393
 1148.0    4.017357  -1.177061
 1149.0    4.027512  -1.180730
 1150.0    4.037668  -1.184398
 1151.0    4.046566  -1.187360
 1152.0    4.055465  -1.190323
 1153.0    4.064364  -1.193285
 1154.0    4.073263  -1.196247
 1155.0    4.082161  -1.199209
 1156.0    4.090017  -1.201516
 1157.0    4.097873  -1.203822
 1158.0    4.105728  -1.206128
 1159.0    4.113584  -1.208434
 1160.0    4.121440  -1.210740
 1161.0    4.128432  -1.212435
 1162.0    4.135425  -1.214129
 1163.0    4.142417  -1.215823
 1164.0    4.149410  -1.217518
 1165.0    4.156402  -1.219212
 1166.0    4.162684  -1.220334
 1167.0    4.168966  -1.221456
 1168.0    4.175248  -1.222578
 1169.0    4.181530  -1.223699
 1170.0    4.187812  -1.224821
 1171.0    4.193515  -1.225405
 1172.0    4.199218  -1.225988
 1173.0    4.204920  -1.226572
 1174.0    4.210623  -1.227155
 1175.0    4.216326  -1.227739
 1176.0    4.221562  -1.227814
 1177.0    4.226798  -1.227890
 1178.0    4.232035  -1.227965
 1179.0    4.237271  -1.228041
 1180.0    4.242508  -1.228116
 1181.0    4.247376  -1.227711
 1182.0    4.252245  -1.227305
 1183.0    4.257114  -1.226899
 1184.0    4.261982  -1.226493
 1185.0    4.266851  -1.226087
 1186.0    4.271439  -1.225224
 1187.0    4.276026  -1.224360
 1188.0    4.280614  -1.223496
 1189.0    4.285201  -1.222632
 1190.0    4.289789  -1.221768
 1191.0    4.294173  -1.220467
 1192.0    4.298556  -1.219165
 1193.0    4.302940  -1.217863
 1194.0    4.307324  -1.216561
 1195.0    4.311708  -1.215259
 1196.0    4.315956  -1.213536
 1197.0    4.320204  -1.211812
 1198.0    4.324452  -1.210089
 1199.0    4.328701  -1.208366
 1200.0    4.332949  -1.206643
 1201.0    4.337124  -1.204512
 1202.0    4.341300  -1.202381
 1203.0    4.345475  -1.200250
 1204.0    4.349650  -1.198119
 1205.0    4.353826  -1.195988
 1206.0    4.357982  -1.193427
 1207.0    4.362138  -1.190865
 1208.0    4.366294  -1.188303
 1209.0    4.370450  -1.185741
 1210.0    4.374606  -1.183180
 1211.0    4.378758  -1.179810
 1212.0    4.382910  -1.176440
 1213.0    4.387062  -1.173070
 1214.0    4.391215  -1.169700
 1215.0    4.395367  -1.166330
 1216.0    4.399551  -1.162043
 1217.0    4.403734  -1.157757
 1218.0    4.407918  -1.153471
 1219.0    4.412102  -1.149184
 1220.0    4.416286  -1.144898
 1221.0    4.420545  -1.139695
 1222.0    4.424803  -1.134491
 1223.0    4.429062  -1.129287
 1224.0    4.433320  -1.124083
 1225.0    4.437579  -1.118880
 1226.0    4.441952  -1.112752
 1227.0    4.446325  -1.106625
 1228.0    4.450699  -1.100497
 1229.0    4.455072  -1.094370
 1230.0    4.459445  -1.088243
 1231.0    4.463970  -1.081181
 1232.0    4.468496  -1.074119
 1233.0    4.473021  -1.067057
 1234.0    4.477546  -1.059995
 1235.0    4.482071  -1.052933
 1236.0    4.486781  -1.044921
 1237.0    4.491492  -1.036910
 1238.0    4.496202  -1.028898
 1239.0    4.500913  -1.020886
 1240.0    4.505623  -1.012874
 1241.0    4.510548  -1.003891
 1242.0    4.515474  -0.994908
 1243.0    4.520399  -0.985925
 1244.0    4.525324  -0.976941
 1245.0    4.530250  -0.967958
 1246.0    4.535414  -0.957977
 1247.0    4.540579  -0.947995
 1248.0    4.545744  -0.938014
 1249.0    4.550909  -0.928033
 1250.0    4.556074  -0.918051
 1251.0    4.561497  -0.907039
 1252.0    4.566920  -0.896027
 1253.0    4.572343  -0.885014
 1254.0    4.577766  -0.874002
 1255.0    4.583189  -0.862989
 1256.0    4.588883  -0.850906
 1257.0    4.594576  -0.838822
 1258.0    4.600270  -0.826739
 1259.0    4.605963  -0.814656
 1260.0    4.611656  -0.802572
 1261.0    4.617624  -0.789372
 1262.0    4.623592  -0.776172
 1263.0    4.629560  -0.762972
 1264.0    4.635528  -0.749772
 1265.0    4.641495  -0.736572
 1266.0    4.647732  -0.722203
 1267.0    4.653968  -0.707834
 1268.0    4.660205  -0.693465
 1269.0    4.666441  -0.679096
 1270.0    4.672678  -0.664727
 1271.0    4.679162  -0.649128
 1272.0    4.685646  -0.633528
 1273.0    4.692131  -0.617929
 1274.0    4.698615  -0.602330
 1275.0    4.705099  -0.586730
 1276.0    4.711803  -0.569838
 1277.0    4.718507  -0.552945
 1278.0    4.725210  -0.536052
 1279.0    4.731914  -0.519159
 1280.0    4.738617  -0.502267
 1281.0    4.745495  -0.484012
 1282.0    4.752374  -0.465758
 1283.0    4.759252  -0.447503
 1284.0    4.766130  -0.429249
 1285.0    4.773008  -0.410994
 1286.0    4.780019  -0.391292
 1287.0    4.787030  -0.371590
 1288.0    4.794041  -0.351888
 1289.0    4.801052  -0.332186
 1290.0    4.808063  -0.312484
 1291.0    4.815175  -0.291246
 1292.0    4.822288  -0.270007
 1293.0    4.829400  -0.248769
 1294.0    4.836512  -0.227530
 1295.0    4.843625  -0.206291
 1296.0    4.849532  -0.183823
 1297.0    4.855440  -0.161354
 1298.0    4.861347  -0.138886
 1299.0    4.867255  -0.116417
 1300.0    4.873162  -0.093948
 1301.0    4.879275  -0.069750
 1302.0    4.885388  -0.045552
 1303.0    4.891501  -0.021354
 1304.0    4.897614   0.002844
 1305.0    4.903727   0.027043
 1306.0    4.910050   0.053158
 1307.0    4.916373   0.079273
 1308.0    4.922696   0.105388
 1309.0    4.929019   0.131503
 1310.0    4.935342   0.157617
 1311.0    4.940933   0.185432
 1312.0    4.946524   0.213247
 1313.0    4.952115   0.241062
 1314.0    4.957706   0.268877
 1315.0    4.963297   0.296692
 1316.0    4.969099   0.326860
 1317.0    4.974900   0.357029
 1318.0    4.980701   0.387198
 1319.0    4.986503   0.417367
 1320.0    4.992304   0.447536
 1321.0    4.996598   0.479356
 1322.0    5.000892   0.511175
 1323.0    5.005185   0.542995
 1324.0    5.009479   0.574815
 1325.0    5.013773   0.606634
 1326.0    5.016164   0.639898
 1327.0    5.018555   0.673163
 1328.0    5.020946   0.706427
 1329.0    5.023337   0.739691
 1330.0    5.025728   0.772955
 1331.0    5.026430   0.807868
 1332.0    5.027131   0.842782
 1333.0    5.027833   0.877695
 1334.0    5.028534   0.912608
 1335.0    5.029236   0.947522
 1336.0    5.027926   0.983934
 1337.0    5.026617   1.020346
 1338.0    5.025307   1.056758
 1339.0    5.023998   1.093171
 1340.0    5.022688   1.129583
 1341.0    5.019046   1.167280
 1342.0    5.015405   1.204977
 1343.0    5.011763   1.242673
 1344.0    5.008121   1.280370
 1345.0    5.004480   1.318067
 1346.0    4.998203   1.356767
 1347.0    4.991926   1.395467
 1348.0    4.985650   1.434166
 1349.0    4.979373   1.472866
 1350.0    4.973097   1.511566
 1351.0    4.963915   1.550918
 1352.0    4.954733   1.590270
 1353.0    4.945551   1.629622
 1354.0    4.936369   1.668974
 1355.0    4.927188   1.708326
 1356.0    4.914896   1.747926
 1357.0    4.902604   1.787525
 1358.0    4.890312   1.827124
 1359.0    4.878020   1.866723
 1360.0    4.865728   1.906322
 1361.0    4.850189   1.945713
 1362.0    4.834651   1.985103
 1363.0    4.819112   2.024494
 1364.0    4.803573   2.063884
 1365.0    4.788035   2.103275
 1366.0    4.769204   2.141975
 1367.0    4.750373   2.180674
 1368.0    4.731543   2.219374
 1369.0    4.712712   2.258074
 1370.0    4.693882   2.296774
 1371.0    4.671811   2.334297
 1372.0    4.649740   2.371821
 1373.0    4.627670   2.409344
 1374.0    4.605599   2.446868
 1375.0    4.583529   2.484391
 1376.0    4.558367   2.520273
 1377.0    4.533206   2.556155
 1378.0    4.508044   2.592037
 1379.0    4.482883   2.627919
 1380.0    4.457721   2.663801
 1381.0    4.429709   2.697620
 1382.0    4.401698   2.731439
 1383.0    4.373686   2.765258
 1384.0    4.345674   2.799076
 1385.0    4.317662   2.832895
 1386.0    4.287115   2.864291
 1387.0    4.256567   2.895687
 1388.0    4.226020   2.927082
 1389.0    4.195472   2.958478
 1390.0    4.164925   2.989874
 1391.0    4.132212   3.018575
 1392.0    4.099500   3.047276
 1393.0    4.066787   3.075977
 1394.0    4.034075   3.104679
 1395.0    4.001362   3.133380
 1396.0    3.966889   3.159190
 1397.0    3.932417   3.185001
 1398.0    3.897944   3.210811
 1399.0    3.863472   3.236622
 1400.0    3.828999   3.262432
 1401.0    3.793183   3.285247
 1402.0    3.757368   3.308061
 1403.0    3.721552   3.330875
 1404.0    3.685736   3.353690
 1405.0    3.649920   3.376504
 1406.0    3.613169   3.396297
 1407.0    3.576418   3.416091
 1408.0    3.539667   3.435884
 1409.0    3.502916   3.455678
 1410.0    3.466164   3.475471
 1411.0    3.428862   3.492289
 1412.0    3.391560   3.509107
 1413.0    3.354257   3.525924
 1414.0    3.316955   3.542742
 1415.0    3.279652   3.559560
 1416.0    3.242145   3.573506
 1417.0    3.204638   3.587453
 1418.0    3.167131   3.601399
 1419.0    3.129625   3.615345
 1420.0    3.092118   3.629292
 1421.0    3.054710   3.640514
 1422.0    3.017302   3.651737
 1423.0    2.979894   3.662959
 1424.0    2.942486   3.674182
 1425.0    2.905078   3.685405
 1426.0    2.868025   3.694082
 1427.0    2.830971   3.702760
 1428.0    2.793918   3.711437
 1429.0    2.756865   3.720115
 1430.0    2.719811   3.728793
 1431.0    2.683322   3.735122
 1432.0    2.646833   3.741452
 1433.0    2.610343   3.747781
 1434.0    2.573854   3.754111
 1435.0    2.537364   3.760441
 1436.0    2.501608   3.764627
 1437.0    2.465852   3.768814
 1438.0    2.430095   3.773000
 1439.0    2.394339   3.777187
 1440.0    2.358583   3.781373
 1441.0    2.323637   3.783561
 1442.0    2.288691   3.785749
 1443.0    2.253744   3.787937
 1444.0    2.218798   3.790125
 1445.0    2.183852   3.792313
 1446.0    2.149893   3.792829
 1447.0    2.115934   3.793346
 1448.0    2.081974   3.793862
 1449.0    2.048015   3.794379
 1450.0    2.014056   3.794895
 1451.0    1.981121   3.793869
 1452.0    1.948186   3.792842
 1453.0    1.915251   3.791816
 1454.0    1.882316   3.790789
 1455.0    1.849382   3.789762
 1456.0    1.817447   3.787332
 1457.0    1.785512   3.784902
 1458.0    1.753577   3.782472
 1459.0    1.721642   3.780042
 1460.0    1.689707   3.777612
 1461.0    1.658861   3.773868
 1462.0    1.628014   3.770124
 1463.0    1.597168   3.766380
 1464.0    1.566321   3.762637
 1465.0    1.535475   3.758893
 1466.0    1.505694   3.754011
 1467.0    1.475912   3.749128
 1468.0    1.446131   3.744246
 1469.0    1.416350   3.739364
 1470.0    1.386569   3.734482
 1471.0    1.357808   3.728725
 1472.0    1.329047   3.722968
 1473.0    1.300286   3.717212
 1474.0    1.271526   3.711455
 1475.0    1.242765   3.705698
 1476.0    1.214977   3.699207
 1477.0    1.187188   3.692715
 1478.0    1.159400   3.686223
 1479.0    1.131612   3.679732
 1480.0    1.103824   3.673240
 1481.0    1.077125   3.665863
 1482.0    1.050427   3.658485
 1483.0    1.023728   3.651107
 1484.0    0.997030   3.643729
 1485.0    0.970331   3.636352
 1486.0    0.944246   3.628441
 1487.0    0.918160   3.620530
 1488.0    0.892075   3.612618
 1489.0    0.865989   3.604707
 1490.0    0.839904   3.596796
 1491.0    0.814730   3.588491
 1492.0    0.789555   3.580185
 1493.0    0.764381   3.571879
 1494.0    0.739207   3.563574
 1495.0    0.714032   3.555268
 1496.0    0.689804   3.546542
 1497.0    0.665575   3.537815
 1498.0    0.641346   3.529088
 1499.0    0.617117   3.520362
 1500.0    0.592889   3.511635
 1501.0    0.569567   3.502536
 1502.0    0.546245   3.493436
 1503.0    0.522923   3.484336
 1504.0    0.499601   3.475237
 1505.0    0.476279   3.466137
 1506.0    0.453853   3.456631
 1507.0    0.431427   3.447125
 1508.0    0.409001   3.437619
 1509.0    0.386575   3.428114
 1510.0    0.364149   3.418608
 1511.0    0.342560   3.408792
 1512.0    0.320971   3.398977
 1513.0    0.299382   3.389161
 1514.0    0.277792   3.379346
 1515.0    0.256203   3.369530
 1516.0    0.235424   3.359407
 1517.0    0.214646   3.349285
 1518.0    0.193867   3.339162
 1519.0    0.173088   3.329040
 1520.0    0.152309   3.318917
 1521.0    0.132306   3.308511
 1522.0    0.112303   3.298105
 1523.0    0.092300   3.287699
 1524.0    0.072297   3.277293
 1525.0    0.052295   3.266887
 1526.0    0.033037   3.256220
 1527.0    0.013779   3.245553
 1528.0   -0.005479   3.234886
 1529.0   -0.024736   3.224219
 1530.0   -0.043994   3.213552
 1531.0   -0.062538   3.202641
 1532.0   -0.081082   3.191730
 1533.0   -0.099625   3.180819
 1534.0   -0.118169   3.169907
 1535.0   -0.136713   3.158996
 1536.0   -0.154571   3.147856
 1537.0   -0.172428   3.136717
 1538.0   -0.190286   3.125578
 1539.0   -0.208143   3.114438
 1540.0   -0.226001   3.103299
 1541.0   -0.243198   3.091943
 1542.0   -0.260396   3.080588
 1543.0   -0.277594   3.069233
 1544.0   -0.294791   3.057878
 1545.0   -0.311989   3.046522
 1546.0   -0.328557   3.034952
 1547.0   -0.345125   3.023382
 1548.0   -0.361693   3.011811
 1549.0   -0.378262   3.000241
 1550.0   -0.394830   2.988670
 1551.0   -0.410746   2.976971
 1552.0   -0.426662   2.965271
 1553.0   -0.442578   2.953572
 1554.0   -0.458494   2.941872
 1555.0   -0.474410   2.930173
 1556.0   -0.489745   2.918267
 1557.0   -0.505081   2.906362
 1558.0   -0.520416   2.894456
 1559.0   -0.535752   2.882551
 1560.0   -0.551087   2.870646
 1561.0   -0.565890   2.858487
 1562.0   -0.580693   2.846329
 1563.0   -0.595495   2.834170
 1564.0   -0.610298   2.822012
 1565.0   -0.625101   2.809854
 1566.0   -0.639370   2.797455
 1567.0   -0.653639   2.785057
 1568.0   -0.667908   2.772659
 1569.0   -0.682176   2.760260
 1570.0   -0.696445   2.747862
 1571.0   -0.710060   2.735317
 1572.0   -0.723675   2.722772
 1573.0   -0.737290   2.710226
 1574.0   -0.750905   2.697681
 1575.0   -0.764520   2.685136
 1576.0   -0.777687   2.672434
 1577.0   -0.790855   2.659733
 1578.0   -0.804022   2.647031
 1579.0   -0.817189   2.634329
 1580.0   -0.830356   2.621628
 1581.0   -0.843064   2.608741
 1582.0   -0.855771   2.595855
 1583.0   -0.868479   2.582968
 1584.0   -0.881186   2.570081
 1585.0   -0.893894   2.557195
 1586.0   -0.906038   2.544079
 1587.0   -0.918182   2.530963
 1588.0   -0.930326   2.517847
 1589.0   -0.942470   2.504731
 1590.0   -0.954614   2.491616
 1591.0   -0.966250   2.478274
 1592.0   -0.977885   2.464933
 1593.0   -0.989520   2.451592
 1594.0   -1.001155   2.438251
 1595.0   -1.012790   2.424910
 1596.0   -1.023957   2.411331
 1597.0   -1.035124   2.397752
 1598.0   -1.046291   2.384172
 1599.0   -1.057457   2.370593
 1600.0   -1.068624   2.357014
 1601.0   -1.079351   2.343154
 1602.0   -1.090077   2.329294
 1603.0   -1.100804   2.315434
 1604.0   -1.111530   2.301575
 1605.0   -1.122256   2.287715
 1606.0   -1.132476   2.273538
 1607.0   -1.142695   2.259361
 1608.0   -1.152915   2.245184
 1609.0   -1.163135   2.231008
 1610.0   -1.173354   2.216831
 1611.0   -1.182126   2.202106
 1612.0   -1.190898   2.187381
 1613.0   -1.199670   2.172657
 1614.0   -1.208442   2.157932
 1615.0   -1.217214   2.143207
 1616.0   -1.225225   2.128111
 1617.0   -1.233236   2.113015
 1618.0   -1.241248   2.097919
 1619.0   -1.249259   2.082823
 1620.0   -1.257270   2.067727
 1621.0   -1.264461   2.052394
 1622.0   -1.271653   2.037061
 1623.0   -1.278844   2.021727
 1624.0   -1.286036   2.006394
 1625.0   -1.293227   1.991061
 1626.0   -1.299545   1.975577
 1627.0   -1.305863   1.960092
 1628.0   -1.312181   1.944608
 1629.0   -1.318499   1.929124
 1630.0   -1.324817   1.913640
 1631.0   -1.330212   1.898086
 1632.0   -1.335607   1.882533
 1633.0   -1.341003   1.866979
 1634.0   -1.346398   1.851426
 1635.0   -1.351793   1.835872
 1636.0   -1.356222   1.820335
 1637.0   -1.360651   1.804799
 1638.0   -1.365080   1.789262
 1639.0   -1.369509   1.773725
 1640.0   -1.373938   1.758188
 1641.0   -1.377365   1.742768
 1642.0   -1.380792   1.727347
 1643.0   -1.384218   1.711926
 1644.0   -1.387645   1.696505
 1645.0   -1.391072   1.681085
 1646.0   -1.393497   1.665923
 1647.0   -1.395922   1.650761
 1648.0   -1.398347   1.635599
 1649.0   -1.400772   1.620437
 1650.0   -1.403197   1.605275
 1651.0   -1.404565   1.590423
 1652.0   -1.405933   1.575571
 1653.0   -1.407301   1.560719
 1654.0   -1.408669   1.545867
 1655.0   -1.410037   1.531015
 1656.0   -1.410348   1.516623
 1657.0   -1.410658   1.502230
 1658.0   -1.410969   1.487838
 1659.0   -1.411280   1.473446
 1660.0   -1.411591   1.459054
 1661.0   -1.410989   1.445326
 1662.0   -1.410388   1.431597
 1663.0   -1.409786   1.417869
 1664.0   -1.409185   1.404141
 1665.0   -1.408583   1.390413
 1666.0   -1.407076   1.377457
 1667.0   -1.405569   1.364501
 1668.0   -1.404062   1.351545
 1669.0   -1.402555   1.338588
 1670.0   -1.401048   1.325632
 1671.0   -1.398730   1.313561
 1672.0   -1.396413   1.301489
 1673.0   -1.394096   1.289418
 1674.0   -1.391778   1.277346
 1675.0   -1.389461   1.265275
 1676.0   -1.386457   1.254203
 1677.0   -1.383454   1.243131
 1678.0   -1.380451   1.232060
 1679.0   -1.377447   1.220988
 1680.0   -1.374444   1.209917
 1681.0   -1.371202   1.200096
 1682.0   -1.367960   1.190276
 1683.0   -1.364717   1.180455
 1684.0   -1.361475   1.170635
 1685.0   -1.358233   1.160815
 1686.0   -1.355312   1.152535
 1687.0   -1.352391   1.144255
 1688.0   -1.349470   1.135975
 1689.0   -1.346548   1.127695
 1690.0   -1.343627   1.119416
 1691.0   -1.340815   1.112237
 1692.0   -1.338004   1.105057
 1693.0   -1.335192   1.097878
 1694.0   -1.332380   1.090699
 1695.0   -1.329569   1.083520
 1696.0   -1.327061   1.077265
 1697.0   -1.324554   1.071009
 1698.0   -1.322046   1.064754
 1699.0   -1.319539   1.058499
 1700.0   -1.317031   1.052244
 1701.0   -1.314965   1.046730
 1702.0   -1.312898   1.041216
 1703.0   -1.310832   1.035703
 1704.0   -1.308766   1.030189
 1705.0   -1.306699   1.024676
 1706.0   -1.305157   1.019722
 1707.0   -1.303615   1.014769
 1708.0   -1.302073   1.009816
 1709.0   -1.300531   1.004862
 1710.0   -1.298989   0.999909
 1711.0   -1.298006   0.995342
 1712.0   -1.297022   0.990774
 1713.0   -1.296039   0.986207
 1714.0   -1.295056   0.981639
 1715.0   -1.294073   0.977072
 1716.0   -1.293642   0.972727
 1717.0   -1.293210   0.968383
 1718.0   -1.292779   0.964038
 1719.0   -1.292348   0.959694
 1720.0   -1.291917   0.955349
 1721.0   -1.291998   0.951086
 1722.0   -1.292079   0.946823
