   W         M2-(pi+_n)
 (MeV)      Re         Im
 1080.0    0.011498  -0.000947
 1081.0    0.024359  -0.002043
 1082.0    0.037221  -0.003139
 1083.0    0.050082  -0.004236
 1084.0    0.062943  -0.005332
 1085.0    0.075804  -0.006429
 1086.0    0.087957  -0.007530
 1087.0    0.100111  -0.008632
 1088.0    0.112264  -0.009733
 1089.0    0.124418  -0.010835
 1090.0    0.136572  -0.011936
 1091.0    0.148064  -0.013045
 1092.0    0.159557  -0.014154
 1093.0    0.171049  -0.015263
 1094.0    0.182542  -0.016372
 1095.0    0.194034  -0.017481
 1096.0    0.204908  -0.018599
 1097.0    0.215782  -0.019717
 1098.0    0.226657  -0.020835
 1099.0    0.237531  -0.021953
 1100.0    0.248405  -0.023071
 1101.0    0.258701  -0.024200
 1102.0    0.268997  -0.025329
 1103.0    0.279292  -0.026458
 1104.0    0.289588  -0.027587
 1105.0    0.299884  -0.028715
 1106.0    0.309639  -0.029856
 1107.0    0.319394  -0.030996
 1108.0    0.329148  -0.032137
 1109.0    0.338903  -0.033277
 1110.0    0.348658  -0.034418
 1111.0    0.357906  -0.035570
 1112.0    0.367154  -0.036723
 1113.0    0.376403  -0.037876
 1114.0    0.385651  -0.039028
 1115.0    0.394899  -0.040181
 1116.0    0.403673  -0.041346
 1117.0    0.412447  -0.042511
 1118.0    0.421221  -0.043676
 1119.0    0.429995  -0.044841
 1120.0    0.438769  -0.046006
 1121.0    0.447099  -0.047183
 1122.0    0.455429  -0.048361
 1123.0    0.463759  -0.049538
 1124.0    0.472089  -0.050715
 1125.0    0.480419  -0.051892
 1126.0    0.488333  -0.053081
 1127.0    0.496248  -0.054270
 1128.0    0.504162  -0.055459
 1129.0    0.512076  -0.056648
 1130.0    0.519991  -0.057836
 1131.0    0.527516  -0.059036
 1132.0    0.535041  -0.060236
 1133.0    0.542566  -0.061435
 1134.0    0.550092  -0.062635
 1135.0    0.557617  -0.063834
 1136.0    0.564778  -0.065043
 1137.0    0.571939  -0.066252
 1138.0    0.579100  -0.067461
 1139.0    0.586261  -0.068670
 1140.0    0.593422  -0.069879
 1141.0    0.600242  -0.071096
 1142.0    0.607063  -0.072313
 1143.0    0.613883  -0.073530
 1144.0    0.620703  -0.074747
 1145.0    0.627523  -0.075964
 1146.0    0.634025  -0.077187
 1147.0    0.640526  -0.078410
 1148.0    0.647028  -0.079633
 1149.0    0.653529  -0.080856
 1150.0    0.660031  -0.082079
 1151.0    0.666235  -0.083306
 1152.0    0.672438  -0.084533
 1153.0    0.678642  -0.085759
 1154.0    0.684845  -0.086986
 1155.0    0.691049  -0.088213
 1156.0    0.696974  -0.089442
 1157.0    0.702899  -0.090670
 1158.0    0.708824  -0.091899
 1159.0    0.714750  -0.093127
 1160.0    0.720675  -0.094355
 1161.0    0.726340  -0.095583
 1162.0    0.732005  -0.096810
 1163.0    0.737671  -0.098037
 1164.0    0.743336  -0.099265
 1165.0    0.749001  -0.100492
 1166.0    0.754424  -0.101715
 1167.0    0.759847  -0.102938
 1168.0    0.765270  -0.104162
 1169.0    0.770693  -0.105385
 1170.0    0.776116  -0.106608
 1171.0    0.781314  -0.107825
 1172.0    0.786511  -0.109041
 1173.0    0.791708  -0.110257
 1174.0    0.796905  -0.111473
 1175.0    0.802102  -0.112689
 1176.0    0.807089  -0.113895
 1177.0    0.812076  -0.115101
 1178.0    0.817063  -0.116307
 1179.0    0.822050  -0.117513
 1180.0    0.827038  -0.118719
 1181.0    0.831829  -0.119911
 1182.0    0.836621  -0.121103
 1183.0    0.841413  -0.122295
 1184.0    0.846205  -0.123487
 1185.0    0.850996  -0.124679
 1186.0    0.855607  -0.125854
 1187.0    0.860217  -0.127028
 1188.0    0.864828  -0.128203
 1189.0    0.869438  -0.129377
 1190.0    0.874049  -0.130552
 1191.0    0.878492  -0.131705
 1192.0    0.882935  -0.132859
 1193.0    0.887377  -0.134012
 1194.0    0.891820  -0.135165
 1195.0    0.896263  -0.136319
 1196.0    0.900551  -0.137447
 1197.0    0.904839  -0.138575
 1198.0    0.909126  -0.139703
 1199.0    0.913414  -0.140832
 1200.0    0.917702  -0.141960
 1201.0    0.921847  -0.143059
 1202.0    0.925992  -0.144158
 1203.0    0.930137  -0.145257
 1204.0    0.934282  -0.146356
 1205.0    0.938427  -0.147455
 1206.0    0.942440  -0.148521
 1207.0    0.946454  -0.149586
 1208.0    0.950467  -0.150652
 1209.0    0.954481  -0.151718
 1210.0    0.958495  -0.152784
 1211.0    0.962388  -0.153812
 1212.0    0.966282  -0.154840
 1213.0    0.970175  -0.155868
 1214.0    0.974069  -0.156896
 1215.0    0.977962  -0.157924
 1216.0    0.981747  -0.158910
 1217.0    0.985531  -0.159896
 1218.0    0.989315  -0.160882
 1219.0    0.993100  -0.161868
 1220.0    0.996884  -0.162853
 1221.0    1.000569  -0.163792
 1222.0    1.004255  -0.164731
 1223.0    1.007940  -0.165670
 1224.0    1.011625  -0.166609
 1225.0    1.015311  -0.167548
 1226.0    1.018907  -0.168435
 1227.0    1.022503  -0.169323
 1228.0    1.026100  -0.170210
 1229.0    1.029696  -0.171097
 1230.0    1.033292  -0.171984
 1231.0    1.036810  -0.172814
 1232.0    1.040327  -0.173645
 1233.0    1.043844  -0.174475
 1234.0    1.047362  -0.175305
 1235.0    1.050879  -0.176136
 1236.0    1.054327  -0.176904
 1237.0    1.057774  -0.177672
 1238.0    1.061222  -0.178440
 1239.0    1.064669  -0.179208
 1240.0    1.068117  -0.179976
 1241.0    1.071504  -0.180677
 1242.0    1.074892  -0.181377
 1243.0    1.078279  -0.182078
 1244.0    1.081666  -0.182779
 1245.0    1.085054  -0.183479
 1246.0    1.088390  -0.184106
 1247.0    1.091727  -0.184734
 1248.0    1.095063  -0.185361
 1249.0    1.098400  -0.185988
 1250.0    1.101736  -0.186615
 1251.0    1.105031  -0.187163
 1252.0    1.108325  -0.187711
 1253.0    1.111620  -0.188259
 1254.0    1.114915  -0.188807
 1255.0    1.118209  -0.189355
 1256.0    1.121471  -0.189817
 1257.0    1.124734  -0.190279
 1258.0    1.127996  -0.190741
 1259.0    1.131258  -0.191203
 1260.0    1.134520  -0.191665
 1261.0    1.137759  -0.192035
 1262.0    1.140998  -0.192404
 1263.0    1.144237  -0.192774
 1264.0    1.147476  -0.193143
 1265.0    1.150715  -0.193513
 1266.0    1.153941  -0.193783
 1267.0    1.157166  -0.194052
 1268.0    1.160391  -0.194322
 1269.0    1.163616  -0.194591
 1270.0    1.166842  -0.194861
 1271.0    1.170064  -0.195024
 1272.0    1.173287  -0.195187
 1273.0    1.176510  -0.195349
 1274.0    1.179733  -0.195512
 1275.0    1.182955  -0.195675
 1276.0    1.186185  -0.195721
 1277.0    1.189414  -0.195768
 1278.0    1.192643  -0.195814
 1279.0    1.195872  -0.195860
 1280.0    1.199101  -0.195907
 1281.0    1.202346  -0.195827
 1282.0    1.205592  -0.195748
 1283.0    1.208838  -0.195668
 1284.0    1.212083  -0.195589
 1285.0    1.215329  -0.195509
 1286.0    1.218604  -0.195294
 1287.0    1.221879  -0.195079
 1288.0    1.225154  -0.194863
 1289.0    1.228429  -0.194648
 1290.0    1.231704  -0.194433
 1291.0    1.235019  -0.194070
 1292.0    1.238334  -0.193708
 1293.0    1.241649  -0.193345
 1294.0    1.244964  -0.192982
 1295.0    1.248279  -0.192620
 1296.0    1.251648  -0.192097
 1297.0    1.255016  -0.191575
 1298.0    1.258385  -0.191052
 1299.0    1.261754  -0.190529
 1300.0    1.265123  -0.190007
 1301.0    1.268558  -0.189309
 1302.0    1.271994  -0.188611
 1303.0    1.275430  -0.187913
 1304.0    1.278865  -0.187215
 1305.0    1.282301  -0.186517
 1306.0    1.285819  -0.185629
 1307.0    1.289336  -0.184742
 1308.0    1.292854  -0.183854
 1309.0    1.296371  -0.182967
 1310.0    1.299889  -0.182079
 1311.0    1.303503  -0.180983
 1312.0    1.307118  -0.179886
 1313.0    1.310732  -0.178790
 1314.0    1.314347  -0.177693
 1315.0    1.317961  -0.176597
 1316.0    1.321689  -0.175272
 1317.0    1.325417  -0.173947
 1318.0    1.329145  -0.172621
 1319.0    1.332873  -0.171296
 1320.0    1.336601  -0.169971
 1321.0    1.340458  -0.168393
 1322.0    1.344315  -0.166816
 1323.0    1.348172  -0.165238
 1324.0    1.352029  -0.163660
 1325.0    1.355886  -0.162082
 1326.0    1.359891  -0.160232
 1327.0    1.363897  -0.158382
 1328.0    1.367903  -0.156532
 1329.0    1.371908  -0.154682
 1330.0    1.375914  -0.152832
 1331.0    1.380083  -0.150679
 1332.0    1.384253  -0.148527
 1333.0    1.388422  -0.146374
 1334.0    1.392591  -0.144222
 1335.0    1.396761  -0.142069
 1336.0    1.401111  -0.139587
 1337.0    1.405460  -0.137105
 1338.0    1.409810  -0.134623
 1339.0    1.414160  -0.132141
 1340.0    1.418510  -0.129658
 1341.0    1.423055  -0.126816
 1342.0    1.427601  -0.123974
 1343.0    1.432147  -0.121132
 1344.0    1.436692  -0.118291
 1345.0    1.441238  -0.115449
 1346.0    1.445993  -0.112216
 1347.0    1.450749  -0.108984
 1348.0    1.455504  -0.105751
 1349.0    1.460260  -0.102519
 1350.0    1.465015  -0.099287
 1351.0    1.469988  -0.095625
 1352.0    1.474960  -0.091964
 1353.0    1.479933  -0.088303
 1354.0    1.484906  -0.084641
 1355.0    1.489878  -0.080980
 1356.0    1.495081  -0.076859
 1357.0    1.500284  -0.072738
 1358.0    1.505487  -0.068617
 1359.0    1.510690  -0.064497
 1360.0    1.515893  -0.060376
 1361.0    1.521330  -0.055753
 1362.0    1.526767  -0.051131
 1363.0    1.532204  -0.046508
 1364.0    1.537641  -0.041886
 1365.0    1.543078  -0.037263
 1366.0    1.548752  -0.032096
 1367.0    1.554425  -0.026929
 1368.0    1.560099  -0.021762
 1369.0    1.565773  -0.016595
 1370.0    1.571447  -0.011428
 1371.0    1.577357  -0.005669
 1372.0    1.583268   0.000090
 1373.0    1.589178   0.005849
 1374.0    1.595089   0.011608
 1375.0    1.601000   0.017367
 1376.0    1.607143   0.023771
 1377.0    1.613287   0.030175
 1378.0    1.619431   0.036579
 1379.0    1.625575   0.042982
 1380.0    1.631718   0.049386
 1381.0    1.638089   0.056493
 1382.0    1.644459   0.063600
 1383.0    1.650830   0.070707
 1384.0    1.657200   0.077814
 1385.0    1.663571   0.084921
 1386.0    1.670154   0.092799
 1387.0    1.676738   0.100678
 1388.0    1.683322   0.108557
 1389.0    1.689905   0.116435
 1390.0    1.696489   0.124314
 1391.0    1.703274   0.133036
 1392.0    1.710058   0.141758
 1393.0    1.716843   0.150480
 1394.0    1.723628   0.159202
 1395.0    1.730412   0.167925
 1396.0    1.737373   0.177577
 1397.0    1.744333   0.187230
 1398.0    1.751293   0.196883
 1399.0    1.758254   0.206536
 1400.0    1.765214   0.216189
 1401.0    1.772319   0.226869
 1402.0    1.779424   0.237549
 1403.0    1.786528   0.248229
 1404.0    1.793633   0.258909
 1405.0    1.800738   0.269590
 1406.0    1.807943   0.281407
 1407.0    1.815148   0.293224
 1408.0    1.822354   0.305042
 1409.0    1.829559   0.316859
 1410.0    1.836764   0.328677
 1411.0    1.844011   0.341756
 1412.0    1.851257   0.354835
 1413.0    1.858503   0.367914
 1414.0    1.865750   0.380992
 1415.0    1.872996   0.394071
 1416.0    1.880203   0.408552
 1417.0    1.887409   0.423032
 1418.0    1.894615   0.437512
 1419.0    1.901822   0.451992
 1420.0    1.909028   0.466472
 1421.0    1.916087   0.482508
 1422.0    1.923145   0.498544
 1423.0    1.930203   0.514580
 1424.0    1.937261   0.530617
 1425.0    1.944319   0.546653
 1426.0    1.951084   0.564415
 1427.0    1.957850   0.582178
 1428.0    1.964615   0.599941
 1429.0    1.971380   0.617703
 1430.0    1.978145   0.635466
 1431.0    1.984425   0.655139
 1432.0    1.990705   0.674811
 1433.0    1.996985   0.694483
 1434.0    2.003265   0.714156
 1435.0    2.009545   0.733828
 1436.0    2.015087   0.755598
 1437.0    2.020630   0.777367
 1438.0    2.026173   0.799137
 1439.0    2.031715   0.820907
 1440.0    2.037258   0.842676
 1441.0    2.041743   0.866725
 1442.0    2.046228   0.890775
 1443.0    2.050713   0.914824
 1444.0    2.055198   0.938873
 1445.0    2.059683   0.962923
 1446.0    2.062696   0.989417
 1447.0    2.065708   1.015910
 1448.0    2.068720   1.042404
 1449.0    2.071733   1.068898
 1450.0    2.074745   1.095392
 1451.0    2.075769   1.124447
 1452.0    2.076793   1.153503
 1453.0    2.077817   1.182558
 1454.0    2.078841   1.211613
 1455.0    2.079866   1.240668
 1456.0    2.078267   1.272323
 1457.0    2.076669   1.303978
 1458.0    2.075071   1.335633
 1459.0    2.073472   1.367288
 1460.0    2.071874   1.398943
 1461.0    2.066905   1.433099
 1462.0    2.061936   1.467255
 1463.0    2.056968   1.501410
 1464.0    2.051999   1.535566
 1465.0    2.047030   1.569722
 1466.0    2.037839   1.606090
 1467.0    2.028647   1.642459
 1468.0    2.019456   1.678828
 1469.0    2.010264   1.715196
 1470.0    2.001073   1.751565
 1471.0    1.986748   1.789590
 1472.0    1.972423   1.827615
 1473.0    1.958099   1.865640
 1474.0    1.943774   1.903665
 1475.0    1.929449   1.941690
 1476.0    1.909101   1.980485
 1477.0    1.888753   2.019280
 1478.0    1.868404   2.058075
 1479.0    1.848056   2.096869
 1480.0    1.827708   2.135664
 1481.0    1.800600   2.173961
 1482.0    1.773491   2.212257
 1483.0    1.746383   2.250554
 1484.0    1.719275   2.288850
 1485.0    1.692167   2.327147
 1486.0    1.657881   2.363307
 1487.0    1.623596   2.399467
 1488.0    1.589311   2.435627
 1489.0    1.555025   2.471787
 1490.0    1.520740   2.507947
 1491.0    1.479369   2.540063
 1492.0    1.437998   2.572179
 1493.0    1.396627   2.604295
 1494.0    1.355256   2.636411
 1495.0    1.313885   2.668527
 1496.0    1.266182   2.694615
 1497.0    1.218478   2.720702
 1498.0    1.170775   2.746790
 1499.0    1.123072   2.772877
 1500.0    1.075368   2.798965
 1501.0    1.022798   2.817250
 1502.0    0.970228   2.835536
 1503.0    0.917658   2.853821
 1504.0    0.865088   2.872107
 1505.0    0.812518   2.890392
 1506.0    0.757153   2.899631
 1507.0    0.701787   2.908870
 1508.0    0.646421   2.918109
 1509.0    0.591055   2.927348
 1510.0    0.535689   2.936587
 1511.0    0.479982   2.936305
 1512.0    0.424274   2.936023
 1513.0    0.368566   2.935742
 1514.0    0.312858   2.935460
 1515.0    0.257151   2.935179
 1516.0    0.203533   2.925762
 1517.0    0.149916   2.916346
 1518.0    0.096298   2.906930
 1519.0    0.042681   2.897514
 1520.0   -0.010937   2.888098
 1521.0   -0.060378   2.870692
 1522.0   -0.109819   2.853286
 1523.0   -0.159260   2.835880
 1524.0   -0.208701   2.818474
 1525.0   -0.258142   2.801068
 1526.0   -0.301911   2.777336
 1527.0   -0.345680   2.753604
 1528.0   -0.389449   2.729872
 1529.0   -0.433218   2.706140
 1530.0   -0.476987   2.682408
 1531.0   -0.514279   2.654220
 1532.0   -0.551571   2.626033
 1533.0   -0.588863   2.597846
 1534.0   -0.626155   2.569659
 1535.0   -0.663447   2.541472
 1536.0   -0.694081   2.510646
 1537.0   -0.724716   2.479819
 1538.0   -0.755350   2.448993
 1539.0   -0.785984   2.418167
 1540.0   -0.816618   2.387341
 1541.0   -0.840900   2.355442
 1542.0   -0.865182   2.323543
 1543.0   -0.889463   2.291644
 1544.0   -0.913745   2.259745
 1545.0   -0.938027   2.227846
 1546.0   -0.956574   2.196109
 1547.0   -0.975122   2.164372
 1548.0   -0.993670   2.132634
 1549.0   -1.012218   2.100897
 1550.0   -1.030766   2.069160
 1551.0   -1.044353   2.038475
 1552.0   -1.057941   2.007791
 1553.0   -1.071528   1.977107
 1554.0   -1.085116   1.946422
 1555.0   -1.098703   1.915738
 1556.0   -1.108134   1.886684
 1557.0   -1.117565   1.857630
 1558.0   -1.126996   1.828576
 1559.0   -1.136427   1.799522
 1560.0   -1.145858   1.770468
 1561.0   -1.151917   1.743380
 1562.0   -1.157976   1.716293
 1563.0   -1.164034   1.689206
 1564.0   -1.170093   1.662118
 1565.0   -1.176152   1.635031
 1566.0   -1.179507   1.610060
 1567.0   -1.182861   1.585088
 1568.0   -1.186216   1.560117
 1569.0   -1.189571   1.535145
 1570.0   -1.192925   1.510174
 1571.0   -1.194175   1.487341
 1572.0   -1.195425   1.464507
 1573.0   -1.196675   1.441674
 1574.0   -1.197925   1.418841
 1575.0   -1.199175   1.396007
 1576.0   -1.198810   1.375249
 1577.0   -1.198445   1.354491
 1578.0   -1.198080   1.333734
 1579.0   -1.197715   1.312976
 1580.0   -1.197350   1.292218
 1581.0   -1.195770   1.273421
 1582.0   -1.194190   1.254624
 1583.0   -1.192610   1.235827
 1584.0   -1.191030   1.217030
 1585.0   -1.189450   1.198233
 1586.0   -1.186975   1.181257
 1587.0   -1.184499   1.164282
 1588.0   -1.182024   1.147306
 1589.0   -1.179549   1.130331
 1590.0   -1.177073   1.113355
 1591.0   -1.173956   1.098050
 1592.0   -1.170838   1.082745
 1593.0   -1.167721   1.067440
 1594.0   -1.164603   1.052135
 1595.0   -1.161486   1.036829
 1596.0   -1.157926   1.023045
 1597.0   -1.154365   1.009261
 1598.0   -1.150805   0.995476
 1599.0   -1.147245   0.981692
 1600.0   -1.143685   0.967907
 1601.0   -1.139836   0.955495
 1602.0   -1.135988   0.943082
 1603.0   -1.132139   0.930670
 1604.0   -1.128291   0.918258
 1605.0   -1.124442   0.905845
 1606.0   -1.120425   0.894675
 1607.0   -1.116408   0.883504
 1608.0   -1.112391   0.872334
 1609.0   -1.108375   0.861163
 1610.0   -1.104358   0.849993
 1611.0   -1.100266   0.839935
 1612.0   -1.096175   0.829877
 1613.0   -1.092083   0.819819
 1614.0   -1.087992   0.809762
 1615.0   -1.083900   0.799704
 1616.0   -1.079805   0.790646
 1617.0   -1.075711   0.781588
 1618.0   -1.071616   0.772530
 1619.0   -1.067521   0.763473
 1620.0   -1.063426   0.754415
 1621.0   -1.059384   0.746254
 1622.0   -1.055342   0.738092
 1623.0   -1.051299   0.729931
 1624.0   -1.047257   0.721770
 1625.0   -1.043215   0.713609
 1626.0   -1.039267   0.706251
 1627.0   -1.035320   0.698893
 1628.0   -1.031373   0.691535
 1629.0   -1.027426   0.684178
 1630.0   -1.023478   0.676820
 1631.0   -1.019659   0.670181
 1632.0   -1.015840   0.663543
 1633.0   -1.012021   0.656905
 1634.0   -1.008202   0.650266
 1635.0   -1.004383   0.643628
 1636.0   -1.000717   0.637631
 1637.0   -0.997052   0.631635
 1638.0   -0.993387   0.625639
 1639.0   -0.989721   0.619643
 1640.0   -0.986056   0.613647
 1641.0   -0.982563   0.608224
 1642.0   -0.979071   0.602800
 1643.0   -0.975578   0.597377
 1644.0   -0.972085   0.591954
 1645.0   -0.968593   0.586531
 1646.0   -0.965280   0.581623
 1647.0   -0.961967   0.576716
 1648.0   -0.958654   0.571808
 1649.0   -0.955341   0.566900
 1650.0   -0.952028   0.561992
 1651.0   -0.948924   0.557520
 1652.0   -0.945820   0.553048
 1653.0   -0.942716   0.548575
 1654.0   -0.939613   0.544103
 1655.0   -0.936509   0.539631
 1656.0   -0.933601   0.535563
 1657.0   -0.930693   0.531495
 1658.0   -0.927784   0.527427
 1659.0   -0.924876   0.523359
 1660.0   -0.921968   0.519291
 1661.0   -0.919260   0.515578
 1662.0   -0.916552   0.511864
 1663.0   -0.913844   0.508151
 1664.0   -0.911136   0.504438
 1665.0   -0.908428   0.500725
 1666.0   -0.905934   0.497262
 1667.0   -0.903440   0.493798
 1668.0   -0.900946   0.490335
 1669.0   -0.898452   0.486872
 1670.0   -0.895958   0.483409
 1671.0   -0.893655   0.480222
 1672.0   -0.891352   0.477035
 1673.0   -0.889049   0.473848
 1674.0   -0.886746   0.470661
 1675.0   -0.884444   0.467474
 1676.0   -0.882332   0.464493
 1677.0   -0.880221   0.461513
 1678.0   -0.878110   0.458532
 1679.0   -0.875999   0.455551
 1680.0   -0.873888   0.452571
 1681.0   -0.871958   0.449760
 1682.0   -0.870029   0.446949
 1683.0   -0.868099   0.444138
 1684.0   -0.866170   0.441327
 1685.0   -0.864240   0.438516
 1686.0   -0.862480   0.435841
 1687.0   -0.860721   0.433166
 1688.0   -0.858961   0.430490
 1689.0   -0.857201   0.427815
 1690.0   -0.855441   0.425139
 1691.0   -0.853838   0.422569
 1692.0   -0.852236   0.419998
 1693.0   -0.850633   0.417427
 1694.0   -0.849030   0.414857
 1695.0   -0.847427   0.412286
 1696.0   -0.845896   0.409799
 1697.0   -0.844365   0.407312
 1698.0   -0.842834   0.404825
 1699.0   -0.841303   0.402338
 1700.0   -0.839772   0.399852
 1701.0   -0.838511   0.397408
 1702.0   -0.837249   0.394965
 1703.0   -0.835988   0.392521
 1704.0   -0.834726   0.390078
 1705.0   -0.833465   0.387635
 1706.0   -0.832246   0.385232
 1707.0   -0.831028   0.382828
 1708.0   -0.829810   0.380425
 1709.0   -0.828592   0.378022
 1710.0   -0.827373   0.375619
 1711.0   -0.826256   0.373235
 1712.0   -0.825139   0.370851
 1713.0   -0.824021   0.368468
 1714.0   -0.822904   0.366084
 1715.0   -0.821787   0.363700
 1716.0   -0.820757   0.361320
 1717.0   -0.819726   0.358940
 1718.0   -0.818696   0.356560
 1719.0   -0.817666   0.354180
 1720.0   -0.816636   0.351800
 1721.0   -0.815681   0.349410
 1722.0   -0.814727   0.347021
