   W         M5-(pi+_n)
 (MeV)      Re         Im
 1080.0    0.000000  -0.000000
 1081.0    0.000004  -0.000000
 1082.0    0.000008  -0.000000
 1083.0    0.000012  -0.000001
 1084.0    0.000016  -0.000001
 1085.0    0.000020  -0.000001
 1086.0    0.000034  -0.000002
 1087.0    0.000048  -0.000003
 1088.0    0.000062  -0.000003
 1089.0    0.000076  -0.000004
 1090.0    0.000090  -0.000005
 1091.0    0.000115  -0.000006
 1092.0    0.000141  -0.000008
 1093.0    0.000167  -0.000009
 1094.0    0.000193  -0.000010
 1095.0    0.000219  -0.000012
 1096.0    0.000257  -0.000014
 1097.0    0.000296  -0.000016
 1098.0    0.000334  -0.000018
 1099.0    0.000373  -0.000020
 1100.0    0.000411  -0.000022
 1101.0    0.000462  -0.000025
 1102.0    0.000514  -0.000028
 1103.0    0.000565  -0.000031
 1104.0    0.000616  -0.000033
 1105.0    0.000667  -0.000036
 1106.0    0.000731  -0.000040
 1107.0    0.000795  -0.000043
 1108.0    0.000859  -0.000047
 1109.0    0.000922  -0.000050
 1110.0    0.000986  -0.000054
 1111.0    0.001061  -0.000058
 1112.0    0.001137  -0.000062
 1113.0    0.001213  -0.000066
 1114.0    0.001288  -0.000070
 1115.0    0.001364  -0.000074
 1116.0    0.001450  -0.000079
 1117.0    0.001537  -0.000084
 1118.0    0.001624  -0.000088
 1119.0    0.001710  -0.000093
 1120.0    0.001797  -0.000098
 1121.0    0.001894  -0.000103
 1122.0    0.001991  -0.000108
 1123.0    0.002088  -0.000113
 1124.0    0.002185  -0.000119
 1125.0    0.002282  -0.000124
 1126.0    0.002389  -0.000130
 1127.0    0.002496  -0.000136
 1128.0    0.002602  -0.000141
 1129.0    0.002709  -0.000147
 1130.0    0.002815  -0.000153
 1131.0    0.002931  -0.000159
 1132.0    0.003046  -0.000166
 1133.0    0.003161  -0.000172
 1134.0    0.003277  -0.000178
 1135.0    0.003392  -0.000184
 1136.0    0.003515  -0.000191
 1137.0    0.003638  -0.000198
 1138.0    0.003762  -0.000205
 1139.0    0.003885  -0.000211
 1140.0    0.004008  -0.000218
 1141.0    0.004138  -0.000225
 1142.0    0.004269  -0.000232
 1143.0    0.004399  -0.000239
 1144.0    0.004529  -0.000246
 1145.0    0.004659  -0.000253
 1146.0    0.004796  -0.000261
 1147.0    0.004932  -0.000268
 1148.0    0.005069  -0.000276
 1149.0    0.005206  -0.000283
 1150.0    0.005342  -0.000291
 1151.0    0.005484  -0.000298
 1152.0    0.005626  -0.000306
 1153.0    0.005769  -0.000314
 1154.0    0.005911  -0.000322
 1155.0    0.006053  -0.000329
 1156.0    0.006200  -0.000337
 1157.0    0.006347  -0.000345
 1158.0    0.006494  -0.000353
 1159.0    0.006641  -0.000361
 1160.0    0.006788  -0.000369
 1161.0    0.006939  -0.000378
 1162.0    0.007090  -0.000386
 1163.0    0.007241  -0.000394
 1164.0    0.007392  -0.000402
 1165.0    0.007544  -0.000411
 1166.0    0.007698  -0.000419
 1167.0    0.007853  -0.000428
 1168.0    0.008008  -0.000436
 1169.0    0.008163  -0.000445
 1170.0    0.008317  -0.000453
 1171.0    0.008475  -0.000462
 1172.0    0.008633  -0.000470
 1173.0    0.008791  -0.000479
 1174.0    0.008949  -0.000488
 1175.0    0.009106  -0.000496
 1176.0    0.009267  -0.000505
 1177.0    0.009427  -0.000514
 1178.0    0.009587  -0.000523
 1179.0    0.009747  -0.000531
 1180.0    0.009908  -0.000540
 1181.0    0.010070  -0.000549
 1182.0    0.010232  -0.000558
 1183.0    0.010394  -0.000567
 1184.0    0.010557  -0.000576
 1185.0    0.010719  -0.000585
 1186.0    0.010883  -0.000594
 1187.0    0.011047  -0.000603
 1188.0    0.011210  -0.000612
 1189.0    0.011374  -0.000621
 1190.0    0.011538  -0.000630
 1191.0    0.011703  -0.000639
 1192.0    0.011868  -0.000648
 1193.0    0.012032  -0.000657
 1194.0    0.012197  -0.000666
 1195.0    0.012362  -0.000675
 1196.0    0.012528  -0.000685
 1197.0    0.012693  -0.000694
 1198.0    0.012859  -0.000703
 1199.0    0.013024  -0.000712
 1200.0    0.013190  -0.000721
 1201.0    0.013356  -0.000731
 1202.0    0.013522  -0.000740
 1203.0    0.013688  -0.000749
 1204.0    0.013854  -0.000758
 1205.0    0.014020  -0.000768
 1206.0    0.014186  -0.000777
 1207.0    0.014352  -0.000786
 1208.0    0.014518  -0.000795
 1209.0    0.014684  -0.000805
 1210.0    0.014850  -0.000814
 1211.0    0.015015  -0.000823
 1212.0    0.015181  -0.000833
 1213.0    0.015347  -0.000842
 1214.0    0.015512  -0.000851
 1215.0    0.015678  -0.000860
 1216.0    0.015843  -0.000870
 1217.0    0.016008  -0.000879
 1218.0    0.016173  -0.000888
 1219.0    0.016338  -0.000898
 1220.0    0.016504  -0.000907
 1221.0    0.016668  -0.000916
 1222.0    0.016832  -0.000926
 1223.0    0.016997  -0.000935
 1224.0    0.017161  -0.000945
 1225.0    0.017325  -0.000954
 1226.0    0.017488  -0.000963
 1227.0    0.017652  -0.000973
 1228.0    0.017815  -0.000982
 1229.0    0.017978  -0.000991
 1230.0    0.018142  -0.001001
 1231.0    0.018304  -0.001010
 1232.0    0.018466  -0.001019
 1233.0    0.018628  -0.001029
 1234.0    0.018790  -0.001038
 1235.0    0.018952  -0.001048
 1236.0    0.019113  -0.001057
 1237.0    0.019273  -0.001066
 1238.0    0.019434  -0.001076
 1239.0    0.019594  -0.001085
 1240.0    0.019755  -0.001094
 1241.0    0.019914  -0.001104
 1242.0    0.020073  -0.001113
 1243.0    0.020232  -0.001123
 1244.0    0.020391  -0.001132
 1245.0    0.020550  -0.001141
 1246.0    0.020708  -0.001151
 1247.0    0.020865  -0.001160
 1248.0    0.021022  -0.001170
 1249.0    0.021179  -0.001179
 1250.0    0.021337  -0.001188
 1251.0    0.021492  -0.001198
 1252.0    0.021648  -0.001207
 1253.0    0.021803  -0.001217
 1254.0    0.021958  -0.001226
 1255.0    0.022114  -0.001236
 1256.0    0.022267  -0.001245
 1257.0    0.022421  -0.001254
 1258.0    0.022574  -0.001264
 1259.0    0.022727  -0.001273
 1260.0    0.022881  -0.001283
 1261.0    0.023032  -0.001292
 1262.0    0.023183  -0.001302
 1263.0    0.023335  -0.001311
 1264.0    0.023486  -0.001321
 1265.0    0.023637  -0.001330
 1266.0    0.023786  -0.001340
 1267.0    0.023935  -0.001349
 1268.0    0.024084  -0.001359
 1269.0    0.024233  -0.001368
 1270.0    0.024382  -0.001378
 1271.0    0.024529  -0.001387
 1272.0    0.024676  -0.001397
 1273.0    0.024822  -0.001406
 1274.0    0.024969  -0.001416
 1275.0    0.025116  -0.001425
 1276.0    0.025260  -0.001435
 1277.0    0.025405  -0.001445
 1278.0    0.025549  -0.001454
 1279.0    0.025694  -0.001464
 1280.0    0.025838  -0.001474
 1281.0    0.025980  -0.001484
 1282.0    0.026122  -0.001493
 1283.0    0.026264  -0.001503
 1284.0    0.026405  -0.001513
 1285.0    0.026547  -0.001522
 1286.0    0.026687  -0.001532
 1287.0    0.026827  -0.001542
 1288.0    0.026966  -0.001552
 1289.0    0.027106  -0.001562
 1290.0    0.027246  -0.001572
 1291.0    0.027382  -0.001582
 1292.0    0.027519  -0.001592
 1293.0    0.027656  -0.001602
 1294.0    0.027793  -0.001611
 1295.0    0.027929  -0.001621
 1296.0    0.028063  -0.001631
 1297.0    0.028198  -0.001641
 1298.0    0.028332  -0.001651
 1299.0    0.028466  -0.001661
 1300.0    0.028600  -0.001671
 1301.0    0.028732  -0.001681
 1302.0    0.028864  -0.001691
 1303.0    0.028996  -0.001701
 1304.0    0.029127  -0.001712
 1305.0    0.029259  -0.001722
 1306.0    0.029388  -0.001732
 1307.0    0.029517  -0.001742
 1308.0    0.029646  -0.001753
 1309.0    0.029775  -0.001763
 1310.0    0.029904  -0.001774
 1311.0    0.030030  -0.001784
 1312.0    0.030156  -0.001795
 1313.0    0.030283  -0.001805
 1314.0    0.030409  -0.001816
 1315.0    0.030535  -0.001826
 1316.0    0.030659  -0.001837
 1317.0    0.030783  -0.001848
 1318.0    0.030906  -0.001859
 1319.0    0.031030  -0.001869
 1320.0    0.031154  -0.001880
 1321.0    0.031274  -0.001891
 1322.0    0.031395  -0.001901
 1323.0    0.031515  -0.001911
 1324.0    0.031636  -0.001922
 1325.0    0.031756  -0.001932
 1326.0    0.031875  -0.001944
 1327.0    0.031993  -0.001955
 1328.0    0.032112  -0.001967
 1329.0    0.032230  -0.001979
 1330.0    0.032349  -0.001990
 1331.0    0.032464  -0.002002
 1332.0    0.032580  -0.002013
 1333.0    0.032695  -0.002025
 1334.0    0.032811  -0.002036
 1335.0    0.032926  -0.002048
 1336.0    0.033039  -0.002060
 1337.0    0.033152  -0.002071
 1338.0    0.033265  -0.002083
 1339.0    0.033378  -0.002095
 1340.0    0.033490  -0.002107
 1341.0    0.033600  -0.002119
 1342.0    0.033711  -0.002131
 1343.0    0.033821  -0.002143
 1344.0    0.033931  -0.002155
 1345.0    0.034041  -0.002168
 1346.0    0.034149  -0.002180
 1347.0    0.034257  -0.002193
 1348.0    0.034364  -0.002206
 1349.0    0.034472  -0.002219
 1350.0    0.034580  -0.002231
 1351.0    0.034684  -0.002244
 1352.0    0.034788  -0.002256
 1353.0    0.034893  -0.002269
 1354.0    0.034997  -0.002281
 1355.0    0.035101  -0.002294
 1356.0    0.035203  -0.002307
 1357.0    0.035306  -0.002320
 1358.0    0.035408  -0.002333
 1359.0    0.035510  -0.002347
 1360.0    0.035612  -0.002360
 1361.0    0.035712  -0.002374
 1362.0    0.035811  -0.002388
 1363.0    0.035911  -0.002401
 1364.0    0.036010  -0.002415
 1365.0    0.036110  -0.002429
 1366.0    0.036207  -0.002443
 1367.0    0.036304  -0.002457
 1368.0    0.036401  -0.002471
 1369.0    0.036498  -0.002485
 1370.0    0.036595  -0.002500
 1371.0    0.036689  -0.002514
 1372.0    0.036784  -0.002529
 1373.0    0.036878  -0.002544
 1374.0    0.036973  -0.002558
 1375.0    0.037067  -0.002573
 1376.0    0.037159  -0.002588
 1377.0    0.037251  -0.002603
 1378.0    0.037343  -0.002618
 1379.0    0.037435  -0.002634
 1380.0    0.037526  -0.002649
 1381.0    0.037616  -0.002664
 1382.0    0.037705  -0.002680
 1383.0    0.037795  -0.002696
 1384.0    0.037884  -0.002711
 1385.0    0.037974  -0.002727
 1386.0    0.038061  -0.002744
 1387.0    0.038148  -0.002760
 1388.0    0.038234  -0.002777
 1389.0    0.038321  -0.002793
 1390.0    0.038408  -0.002810
 1391.0    0.038493  -0.002827
 1392.0    0.038578  -0.002843
 1393.0    0.038662  -0.002860
 1394.0    0.038747  -0.002877
 1395.0    0.038831  -0.002894
 1396.0    0.038914  -0.002911
 1397.0    0.038996  -0.002929
 1398.0    0.039078  -0.002947
 1399.0    0.039161  -0.002964
 1400.0    0.039243  -0.002982
 1401.0    0.039323  -0.003000
 1402.0    0.039403  -0.003018
 1403.0    0.039483  -0.003036
 1404.0    0.039563  -0.003054
 1405.0    0.039643  -0.003072
 1406.0    0.039721  -0.003091
 1407.0    0.039798  -0.003110
 1408.0    0.039876  -0.003129
 1409.0    0.039954  -0.003148
 1410.0    0.040032  -0.003167
 1411.0    0.040107  -0.003186
 1412.0    0.040183  -0.003206
 1413.0    0.040258  -0.003225
 1414.0    0.040334  -0.003245
 1415.0    0.040409  -0.003264
 1416.0    0.040483  -0.003285
 1417.0    0.040556  -0.003305
 1418.0    0.040630  -0.003325
 1419.0    0.040703  -0.003345
 1420.0    0.040777  -0.003366
 1421.0    0.040848  -0.003387
 1422.0    0.040920  -0.003408
 1423.0    0.040991  -0.003429
 1424.0    0.041062  -0.003450
 1425.0    0.041134  -0.003471
 1426.0    0.041203  -0.003492
 1427.0    0.041273  -0.003514
 1428.0    0.041342  -0.003536
 1429.0    0.041411  -0.003557
 1430.0    0.041481  -0.003579
 1431.0    0.041548  -0.003601
 1432.0    0.041615  -0.003623
 1433.0    0.041683  -0.003646
 1434.0    0.041750  -0.003668
 1435.0    0.041817  -0.003690
 1436.0    0.041883  -0.003714
 1437.0    0.041949  -0.003738
 1438.0    0.042015  -0.003762
 1439.0    0.042081  -0.003786
 1440.0    0.042147  -0.003810
 1441.0    0.042211  -0.003834
 1442.0    0.042275  -0.003858
 1443.0    0.042339  -0.003882
 1444.0    0.042403  -0.003906
 1445.0    0.042466  -0.003930
 1446.0    0.042528  -0.003954
 1447.0    0.042591  -0.003979
 1448.0    0.042653  -0.004004
 1449.0    0.042715  -0.004029
 1450.0    0.042777  -0.004054
 1451.0    0.042837  -0.004079
 1452.0    0.042898  -0.004105
 1453.0    0.042958  -0.004131
 1454.0    0.043019  -0.004156
 1455.0    0.043079  -0.004182
 1456.0    0.043138  -0.004209
 1457.0    0.043197  -0.004235
 1458.0    0.043256  -0.004262
 1459.0    0.043315  -0.004288
 1460.0    0.043374  -0.004315
 1461.0    0.043432  -0.004342
 1462.0    0.043489  -0.004369
 1463.0    0.043546  -0.004396
 1464.0    0.043604  -0.004424
 1465.0    0.043661  -0.004451
 1466.0    0.043717  -0.004479
 1467.0    0.043773  -0.004507
 1468.0    0.043830  -0.004535
 1469.0    0.043886  -0.004564
 1470.0    0.043942  -0.004592
 1471.0    0.043996  -0.004621
 1472.0    0.044051  -0.004649
 1473.0    0.044106  -0.004678
 1474.0    0.044161  -0.004707
 1475.0    0.044215  -0.004736
 1476.0    0.044269  -0.004766
 1477.0    0.044322  -0.004796
 1478.0    0.044376  -0.004825
 1479.0    0.044429  -0.004855
 1480.0    0.044483  -0.004885
 1481.0    0.044535  -0.004915
 1482.0    0.044587  -0.004946
 1483.0    0.044640  -0.004976
 1484.0    0.044692  -0.005007
 1485.0    0.044744  -0.005037
 1486.0    0.044795  -0.005068
 1487.0    0.044847  -0.005100
 1488.0    0.044898  -0.005131
 1489.0    0.044949  -0.005162
 1490.0    0.045000  -0.005193
 1491.0    0.045051  -0.005225
 1492.0    0.045101  -0.005257
 1493.0    0.045151  -0.005289
 1494.0    0.045201  -0.005321
 1495.0    0.045252  -0.005353
 1496.0    0.045301  -0.005386
 1497.0    0.045350  -0.005419
 1498.0    0.045399  -0.005452
 1499.0    0.045449  -0.005484
 1500.0    0.045498  -0.005517
 1501.0    0.045544  -0.005549
 1502.0    0.045591  -0.005580
 1503.0    0.045637  -0.005612
 1504.0    0.045684  -0.005644
 1505.0    0.045730  -0.005675
 1506.0    0.045780  -0.005711
 1507.0    0.045830  -0.005747
 1508.0    0.045880  -0.005784
 1509.0    0.045930  -0.005820
 1510.0    0.045980  -0.005856
 1511.0    0.046027  -0.005890
 1512.0    0.046074  -0.005925
 1513.0    0.046122  -0.005960
 1514.0    0.046169  -0.005995
 1515.0    0.046216  -0.006029
 1516.0    0.046262  -0.006065
 1517.0    0.046309  -0.006100
 1518.0    0.046355  -0.006135
 1519.0    0.046402  -0.006171
 1520.0    0.046448  -0.006206
 1521.0    0.046494  -0.006242
 1522.0    0.046540  -0.006278
 1523.0    0.046586  -0.006314
 1524.0    0.046632  -0.006350
 1525.0    0.046678  -0.006386
 1526.0    0.046724  -0.006422
 1527.0    0.046770  -0.006459
 1528.0    0.046815  -0.006495
 1529.0    0.046861  -0.006532
 1530.0    0.046907  -0.006568
 1531.0    0.046952  -0.006605
 1532.0    0.046997  -0.006642
 1533.0    0.047043  -0.006679
 1534.0    0.047088  -0.006716
 1535.0    0.047133  -0.006753
 1536.0    0.047178  -0.006790
 1537.0    0.047223  -0.006827
 1538.0    0.047268  -0.006865
 1539.0    0.047313  -0.006902
 1540.0    0.047359  -0.006940
 1541.0    0.047403  -0.006977
 1542.0    0.047448  -0.007015
 1543.0    0.047493  -0.007053
 1544.0    0.047538  -0.007090
 1545.0    0.047583  -0.007128
 1546.0    0.047628  -0.007166
 1547.0    0.047673  -0.007204
 1548.0    0.047718  -0.007242
 1549.0    0.047762  -0.007280
 1550.0    0.047807  -0.007318
 1551.0    0.047852  -0.007357
 1552.0    0.047897  -0.007395
 1553.0    0.047942  -0.007433
 1554.0    0.047987  -0.007472
 1555.0    0.048031  -0.007510
 1556.0    0.048076  -0.007548
 1557.0    0.048121  -0.007587
 1558.0    0.048166  -0.007625
 1559.0    0.048211  -0.007664
 1560.0    0.048256  -0.007702
 1561.0    0.048301  -0.007741
 1562.0    0.048346  -0.007780
 1563.0    0.048391  -0.007818
 1564.0    0.048436  -0.007857
 1565.0    0.048481  -0.007895
 1566.0    0.048526  -0.007934
 1567.0    0.048572  -0.007973
 1568.0    0.048617  -0.008011
 1569.0    0.048662  -0.008050
 1570.0    0.048707  -0.008089
 1571.0    0.048753  -0.008127
 1572.0    0.048798  -0.008166
 1573.0    0.048844  -0.008204
 1574.0    0.048889  -0.008243
 1575.0    0.048935  -0.008282
 1576.0    0.048981  -0.008320
 1577.0    0.049027  -0.008359
 1578.0    0.049073  -0.008397
 1579.0    0.049118  -0.008436
 1580.0    0.049164  -0.008474
 1581.0    0.049211  -0.008513
 1582.0    0.049257  -0.008551
 1583.0    0.049303  -0.008589
 1584.0    0.049349  -0.008627
 1585.0    0.049396  -0.008666
 1586.0    0.049442  -0.008704
 1587.0    0.049489  -0.008742
 1588.0    0.049536  -0.008780
 1589.0    0.049583  -0.008818
 1590.0    0.049630  -0.008856
 1591.0    0.049677  -0.008894
 1592.0    0.049724  -0.008931
 1593.0    0.049771  -0.008969
 1594.0    0.049819  -0.009007
 1595.0    0.049866  -0.009044
 1596.0    0.049914  -0.009082
 1597.0    0.049962  -0.009119
 1598.0    0.050009  -0.009156
 1599.0    0.050057  -0.009194
 1600.0    0.050105  -0.009231
 1601.0    0.050154  -0.009267
 1602.0    0.050202  -0.009303
 1603.0    0.050251  -0.009340
 1604.0    0.050300  -0.009376
 1605.0    0.050348  -0.009412
 1606.0    0.050397  -0.009448
 1607.0    0.050446  -0.009485
 1608.0    0.050496  -0.009521
 1609.0    0.050545  -0.009557
 1610.0    0.050594  -0.009594
 1611.0    0.050644  -0.009629
 1612.0    0.050694  -0.009664
 1613.0    0.050743  -0.009699
 1614.0    0.050793  -0.009735
 1615.0    0.050843  -0.009770
 1616.0    0.050894  -0.009805
 1617.0    0.050944  -0.009839
 1618.0    0.050995  -0.009873
 1619.0    0.051046  -0.009908
 1620.0    0.051096  -0.009942
 1621.0    0.051148  -0.009976
 1622.0    0.051199  -0.010009
 1623.0    0.051251  -0.010043
 1624.0    0.051302  -0.010077
 1625.0    0.051354  -0.010110
 1626.0    0.051406  -0.010143
 1627.0    0.051458  -0.010175
 1628.0    0.051510  -0.010207
 1629.0    0.051563  -0.010240
 1630.0    0.051615  -0.010272
 1631.0    0.051668  -0.010304
 1632.0    0.051721  -0.010335
 1633.0    0.051774  -0.010366
 1634.0    0.051827  -0.010398
 1635.0    0.051880  -0.010429
 1636.0    0.051934  -0.010459
 1637.0    0.051988  -0.010489
 1638.0    0.052042  -0.010519
 1639.0    0.052096  -0.010550
 1640.0    0.052150  -0.010580
 1641.0    0.052205  -0.010608
 1642.0    0.052260  -0.010637
 1643.0    0.052315  -0.010666
 1644.0    0.052370  -0.010695
 1645.0    0.052424  -0.010723
 1646.0    0.052480  -0.010751
 1647.0    0.052536  -0.010778
 1648.0    0.052592  -0.010805
 1649.0    0.052647  -0.010833
 1650.0    0.052703  -0.010860
 1651.0    0.052760  -0.010886
 1652.0    0.052817  -0.010911
 1653.0    0.052873  -0.010937
 1654.0    0.052930  -0.010963
 1655.0    0.052986  -0.010989
 1656.0    0.053044  -0.011013
 1657.0    0.053102  -0.011037
 1658.0    0.053159  -0.011061
 1659.0    0.053217  -0.011085
 1660.0    0.053274  -0.011109
 1661.0    0.053333  -0.011131
 1662.0    0.053391  -0.011153
 1663.0    0.053450  -0.011176
 1664.0    0.053508  -0.011198
 1665.0    0.053567  -0.011220
 1666.0    0.053626  -0.011241
 1667.0    0.053685  -0.011261
 1668.0    0.053745  -0.011282
 1669.0    0.053804  -0.011302
 1670.0    0.053863  -0.011322
 1671.0    0.053924  -0.011341
 1672.0    0.053984  -0.011359
 1673.0    0.054044  -0.011378
 1674.0    0.054104  -0.011396
 1675.0    0.054165  -0.011415
 1676.0    0.054226  -0.011431
 1677.0    0.054287  -0.011447
 1678.0    0.054348  -0.011464
 1679.0    0.054409  -0.011480
 1680.0    0.054470  -0.011497
 1681.0    0.054532  -0.011511
 1682.0    0.054594  -0.011525
 1683.0    0.054656  -0.011539
 1684.0    0.054718  -0.011553
 1685.0    0.054780  -0.011567
 1686.0    0.054843  -0.011579
 1687.0    0.054906  -0.011591
 1688.0    0.054968  -0.011603
 1689.0    0.055031  -0.011615
 1690.0    0.055094  -0.011627
 1691.0    0.055158  -0.011636
 1692.0    0.055221  -0.011646
 1693.0    0.055285  -0.011655
 1694.0    0.055348  -0.011665
 1695.0    0.055412  -0.011675
 1696.0    0.055476  -0.011682
 1697.0    0.055541  -0.011689
 1698.0    0.055605  -0.011696
 1699.0    0.055669  -0.011703
 1700.0    0.055734  -0.011710
 1701.0    0.055799  -0.011714
 1702.0    0.055864  -0.011719
 1703.0    0.055929  -0.011723
 1704.0    0.055994  -0.011728
 1705.0    0.056059  -0.011732
 1706.0    0.056125  -0.011734
 1707.0    0.056190  -0.011736
 1708.0    0.056256  -0.011737
 1709.0    0.056322  -0.011739
 1710.0    0.056387  -0.011741
 1711.0    0.056454  -0.011740
 1712.0    0.056520  -0.011739
 1713.0    0.056587  -0.011738
 1714.0    0.056653  -0.011737
 1715.0    0.056719  -0.011736
 1716.0    0.056786  -0.011733
 1717.0    0.056853  -0.011729
 1718.0    0.056920  -0.011725
 1719.0    0.056987  -0.011721
 1720.0    0.057054  -0.011717
 1721.0    0.057121  -0.011711
 1722.0    0.057189  -0.011704
