   W         M6-(pi+_n)
 (MeV)      Re         Im
 1080.0    0.000000  -0.000000
 1081.0    0.000000  -0.000000
 1082.0    0.000001  -0.000000
 1083.0    0.000001  -0.000000
 1084.0    0.000001  -0.000000
 1085.0    0.000002  -0.000000
 1086.0    0.000003  -0.000000
 1087.0    0.000005  -0.000000
 1088.0    0.000007  -0.000000
 1089.0    0.000009  -0.000000
 1090.0    0.000010  -0.000001
 1091.0    0.000014  -0.000001
 1092.0    0.000018  -0.000001
 1093.0    0.000022  -0.000001
 1094.0    0.000026  -0.000001
 1095.0    0.000030  -0.000002
 1096.0    0.000037  -0.000002
 1097.0    0.000044  -0.000002
 1098.0    0.000051  -0.000003
 1099.0    0.000058  -0.000003
 1100.0    0.000065  -0.000004
 1101.0    0.000075  -0.000004
 1102.0    0.000085  -0.000005
 1103.0    0.000096  -0.000005
 1104.0    0.000106  -0.000006
 1105.0    0.000116  -0.000006
 1106.0    0.000130  -0.000007
 1107.0    0.000144  -0.000008
 1108.0    0.000158  -0.000009
 1109.0    0.000172  -0.000009
 1110.0    0.000186  -0.000010
 1111.0    0.000204  -0.000011
 1112.0    0.000222  -0.000012
 1113.0    0.000240  -0.000013
 1114.0    0.000257  -0.000014
 1115.0    0.000275  -0.000015
 1116.0    0.000297  -0.000016
 1117.0    0.000319  -0.000017
 1118.0    0.000341  -0.000019
 1119.0    0.000362  -0.000020
 1120.0    0.000384  -0.000021
 1121.0    0.000410  -0.000022
 1122.0    0.000436  -0.000024
 1123.0    0.000461  -0.000025
 1124.0    0.000487  -0.000026
 1125.0    0.000513  -0.000028
 1126.0    0.000543  -0.000029
 1127.0    0.000572  -0.000031
 1128.0    0.000602  -0.000033
 1129.0    0.000632  -0.000034
 1130.0    0.000661  -0.000036
 1131.0    0.000695  -0.000038
 1132.0    0.000728  -0.000040
 1133.0    0.000762  -0.000041
 1134.0    0.000795  -0.000043
 1135.0    0.000829  -0.000045
 1136.0    0.000866  -0.000047
 1137.0    0.000903  -0.000049
 1138.0    0.000940  -0.000051
 1139.0    0.000977  -0.000053
 1140.0    0.001014  -0.000055
 1141.0    0.001055  -0.000057
 1142.0    0.001096  -0.000060
 1143.0    0.001136  -0.000062
 1144.0    0.001177  -0.000064
 1145.0    0.001218  -0.000066
 1146.0    0.001262  -0.000069
 1147.0    0.001306  -0.000071
 1148.0    0.001350  -0.000073
 1149.0    0.001394  -0.000076
 1150.0    0.001438  -0.000078
 1151.0    0.001485  -0.000081
 1152.0    0.001532  -0.000083
 1153.0    0.001579  -0.000086
 1154.0    0.001626  -0.000088
 1155.0    0.001673  -0.000091
 1156.0    0.001724  -0.000094
 1157.0    0.001774  -0.000096
 1158.0    0.001824  -0.000099
 1159.0    0.001874  -0.000102
 1160.0    0.001924  -0.000105
 1161.0    0.001977  -0.000107
 1162.0    0.002030  -0.000110
 1163.0    0.002082  -0.000113
 1164.0    0.002135  -0.000116
 1165.0    0.002188  -0.000119
 1166.0    0.002243  -0.000122
 1167.0    0.002299  -0.000125
 1168.0    0.002354  -0.000128
 1169.0    0.002410  -0.000131
 1170.0    0.002465  -0.000134
 1171.0    0.002523  -0.000137
 1172.0    0.002580  -0.000140
 1173.0    0.002638  -0.000143
 1174.0    0.002696  -0.000146
 1175.0    0.002753  -0.000150
 1176.0    0.002813  -0.000153
 1177.0    0.002873  -0.000156
 1178.0    0.002933  -0.000159
 1179.0    0.002993  -0.000163
 1180.0    0.003052  -0.000166
 1181.0    0.003114  -0.000169
 1182.0    0.003176  -0.000173
 1183.0    0.003238  -0.000176
 1184.0    0.003299  -0.000179
 1185.0    0.003361  -0.000183
 1186.0    0.003425  -0.000186
 1187.0    0.003488  -0.000190
 1188.0    0.003552  -0.000193
 1189.0    0.003615  -0.000196
 1190.0    0.003679  -0.000200
 1191.0    0.003744  -0.000203
 1192.0    0.003809  -0.000207
 1193.0    0.003874  -0.000210
 1194.0    0.003939  -0.000214
 1195.0    0.004004  -0.000218
 1196.0    0.004070  -0.000221
 1197.0    0.004137  -0.000225
 1198.0    0.004203  -0.000228
 1199.0    0.004269  -0.000232
 1200.0    0.004336  -0.000236
 1201.0    0.004403  -0.000239
 1202.0    0.004471  -0.000243
 1203.0    0.004539  -0.000247
 1204.0    0.004606  -0.000250
 1205.0    0.004674  -0.000254
 1206.0    0.004743  -0.000258
 1207.0    0.004811  -0.000261
 1208.0    0.004880  -0.000265
 1209.0    0.004949  -0.000269
 1210.0    0.005017  -0.000273
 1211.0    0.005087  -0.000276
 1212.0    0.005156  -0.000280
 1213.0    0.005226  -0.000284
 1214.0    0.005295  -0.000288
 1215.0    0.005365  -0.000291
 1216.0    0.005435  -0.000295
 1217.0    0.005506  -0.000299
 1218.0    0.005576  -0.000303
 1219.0    0.005646  -0.000307
 1220.0    0.005716  -0.000311
 1221.0    0.005787  -0.000314
 1222.0    0.005858  -0.000318
 1223.0    0.005929  -0.000322
 1224.0    0.006000  -0.000326
 1225.0    0.006071  -0.000330
 1226.0    0.006142  -0.000334
 1227.0    0.006214  -0.000338
 1228.0    0.006285  -0.000341
 1229.0    0.006356  -0.000345
 1230.0    0.006428  -0.000349
 1231.0    0.006500  -0.000353
 1232.0    0.006571  -0.000357
 1233.0    0.006643  -0.000361
 1234.0    0.006715  -0.000365
 1235.0    0.006786  -0.000369
 1236.0    0.006858  -0.000373
 1237.0    0.006930  -0.000377
 1238.0    0.007002  -0.000380
 1239.0    0.007074  -0.000384
 1240.0    0.007146  -0.000388
 1241.0    0.007218  -0.000392
 1242.0    0.007290  -0.000396
 1243.0    0.007363  -0.000400
 1244.0    0.007435  -0.000404
 1245.0    0.007507  -0.000408
 1246.0    0.007579  -0.000412
 1247.0    0.007651  -0.000416
 1248.0    0.007723  -0.000420
 1249.0    0.007795  -0.000424
 1250.0    0.007867  -0.000428
 1251.0    0.007940  -0.000431
 1252.0    0.008012  -0.000435
 1253.0    0.008084  -0.000439
 1254.0    0.008156  -0.000443
 1255.0    0.008228  -0.000447
 1256.0    0.008300  -0.000451
 1257.0    0.008372  -0.000455
 1258.0    0.008444  -0.000459
 1259.0    0.008516  -0.000463
 1260.0    0.008587  -0.000467
 1261.0    0.008659  -0.000471
 1262.0    0.008731  -0.000475
 1263.0    0.008802  -0.000478
 1264.0    0.008874  -0.000482
 1265.0    0.008946  -0.000486
 1266.0    0.009017  -0.000490
 1267.0    0.009089  -0.000494
 1268.0    0.009160  -0.000498
 1269.0    0.009232  -0.000502
 1270.0    0.009303  -0.000506
 1271.0    0.009374  -0.000510
 1272.0    0.009445  -0.000514
 1273.0    0.009516  -0.000518
 1274.0    0.009587  -0.000522
 1275.0    0.009658  -0.000525
 1276.0    0.009729  -0.000529
 1277.0    0.009799  -0.000533
 1278.0    0.009870  -0.000537
 1279.0    0.009940  -0.000540
 1280.0    0.010011  -0.000544
 1281.0    0.010081  -0.000548
 1282.0    0.010151  -0.000552
 1283.0    0.010221  -0.000556
 1284.0    0.010291  -0.000560
 1285.0    0.010361  -0.000564
 1286.0    0.010431  -0.000567
 1287.0    0.010500  -0.000571
 1288.0    0.010569  -0.000575
 1289.0    0.010639  -0.000579
 1290.0    0.010708  -0.000583
 1291.0    0.010777  -0.000586
 1292.0    0.010846  -0.000590
 1293.0    0.010915  -0.000594
 1294.0    0.010984  -0.000598
 1295.0    0.011053  -0.000602
 1296.0    0.011121  -0.000605
 1297.0    0.011190  -0.000609
 1298.0    0.011258  -0.000613
 1299.0    0.011326  -0.000617
 1300.0    0.011394  -0.000620
 1301.0    0.011462  -0.000624
 1302.0    0.011530  -0.000628
 1303.0    0.011597  -0.000632
 1304.0    0.011665  -0.000636
 1305.0    0.011733  -0.000640
 1306.0    0.011800  -0.000644
 1307.0    0.011866  -0.000648
 1308.0    0.011933  -0.000651
 1309.0    0.012000  -0.000655
 1310.0    0.012067  -0.000658
 1311.0    0.012133  -0.000662
 1312.0    0.012199  -0.000666
 1313.0    0.012265  -0.000669
 1314.0    0.012331  -0.000673
 1315.0    0.012397  -0.000677
 1316.0    0.012462  -0.000680
 1317.0    0.012527  -0.000684
 1318.0    0.012592  -0.000688
 1319.0    0.012658  -0.000691
 1320.0    0.012723  -0.000695
 1321.0    0.012788  -0.000699
 1322.0    0.012852  -0.000703
 1323.0    0.012917  -0.000707
 1324.0    0.012982  -0.000710
 1325.0    0.013047  -0.000714
 1326.0    0.013110  -0.000718
 1327.0    0.013173  -0.000721
 1328.0    0.013236  -0.000725
 1329.0    0.013300  -0.000728
 1330.0    0.013363  -0.000732
 1331.0    0.013426  -0.000735
 1332.0    0.013488  -0.000739
 1333.0    0.013551  -0.000742
 1334.0    0.013614  -0.000746
 1335.0    0.013676  -0.000750
 1336.0    0.013738  -0.000753
 1337.0    0.013800  -0.000757
 1338.0    0.013862  -0.000760
 1339.0    0.013923  -0.000764
 1340.0    0.013985  -0.000768
 1341.0    0.014046  -0.000771
 1342.0    0.014107  -0.000775
 1343.0    0.014167  -0.000778
 1344.0    0.014228  -0.000782
 1345.0    0.014289  -0.000785
 1346.0    0.014349  -0.000789
 1347.0    0.014409  -0.000793
 1348.0    0.014469  -0.000797
 1349.0    0.014529  -0.000800
 1350.0    0.014588  -0.000804
 1351.0    0.014647  -0.000807
 1352.0    0.014706  -0.000811
 1353.0    0.014765  -0.000814
 1354.0    0.014824  -0.000817
 1355.0    0.014883  -0.000820
 1356.0    0.014941  -0.000824
 1357.0    0.014999  -0.000828
 1358.0    0.015057  -0.000831
 1359.0    0.015115  -0.000835
 1360.0    0.015173  -0.000838
 1361.0    0.015230  -0.000842
 1362.0    0.015286  -0.000845
 1363.0    0.015343  -0.000849
 1364.0    0.015400  -0.000852
 1365.0    0.015457  -0.000856
 1366.0    0.015513  -0.000860
 1367.0    0.015569  -0.000863
 1368.0    0.015625  -0.000867
 1369.0    0.015681  -0.000870
 1370.0    0.015737  -0.000874
 1371.0    0.015792  -0.000877
 1372.0    0.015847  -0.000881
 1373.0    0.015902  -0.000884
 1374.0    0.015957  -0.000888
 1375.0    0.016012  -0.000892
 1376.0    0.016066  -0.000895
 1377.0    0.016120  -0.000899
 1378.0    0.016174  -0.000902
 1379.0    0.016228  -0.000906
 1380.0    0.016281  -0.000909
 1381.0    0.016334  -0.000913
 1382.0    0.016387  -0.000917
 1383.0    0.016440  -0.000920
 1384.0    0.016493  -0.000924
 1385.0    0.016546  -0.000928
 1386.0    0.016598  -0.000931
 1387.0    0.016650  -0.000934
 1388.0    0.016701  -0.000937
 1389.0    0.016753  -0.000941
 1390.0    0.016804  -0.000944
 1391.0    0.016855  -0.000948
 1392.0    0.016906  -0.000951
 1393.0    0.016957  -0.000955
 1394.0    0.017008  -0.000959
 1395.0    0.017059  -0.000963
 1396.0    0.017109  -0.000966
 1397.0    0.017159  -0.000970
 1398.0    0.017209  -0.000974
 1399.0    0.017259  -0.000977
 1400.0    0.017308  -0.000981
 1401.0    0.017357  -0.000985
 1402.0    0.017406  -0.000988
 1403.0    0.017455  -0.000992
 1404.0    0.017504  -0.000996
 1405.0    0.017552  -0.000999
 1406.0    0.017600  -0.001003
 1407.0    0.017648  -0.001007
 1408.0    0.017696  -0.001011
 1409.0    0.017743  -0.001014
 1410.0    0.017791  -0.001018
 1411.0    0.017838  -0.001022
 1412.0    0.017885  -0.001026
 1413.0    0.017931  -0.001030
 1414.0    0.017978  -0.001033
 1415.0    0.018025  -0.001037
 1416.0    0.018071  -0.001041
 1417.0    0.018116  -0.001045
 1418.0    0.018162  -0.001049
 1419.0    0.018208  -0.001053
 1420.0    0.018253  -0.001056
 1421.0    0.018298  -0.001060
 1422.0    0.018343  -0.001064
 1423.0    0.018388  -0.001068
 1424.0    0.018432  -0.001072
 1425.0    0.018477  -0.001076
 1426.0    0.018521  -0.001080
 1427.0    0.018564  -0.001084
 1428.0    0.018608  -0.001088
 1429.0    0.018652  -0.001092
 1430.0    0.018695  -0.001096
 1431.0    0.018738  -0.001100
 1432.0    0.018781  -0.001104
 1433.0    0.018824  -0.001108
 1434.0    0.018866  -0.001112
 1435.0    0.018909  -0.001117
 1436.0    0.018951  -0.001121
 1437.0    0.018992  -0.001125
 1438.0    0.019033  -0.001129
 1439.0    0.019075  -0.001133
 1440.0    0.019116  -0.001138
 1441.0    0.019157  -0.001142
 1442.0    0.019198  -0.001146
 1443.0    0.019238  -0.001151
 1444.0    0.019279  -0.001155
 1445.0    0.019320  -0.001159
 1446.0    0.019360  -0.001164
 1447.0    0.019399  -0.001168
 1448.0    0.019439  -0.001172
 1449.0    0.019479  -0.001177
 1450.0    0.019518  -0.001181
 1451.0    0.019557  -0.001186
 1452.0    0.019596  -0.001190
 1453.0    0.019634  -0.001195
 1454.0    0.019673  -0.001199
 1455.0    0.019712  -0.001204
 1456.0    0.019749  -0.001209
 1457.0    0.019787  -0.001213
 1458.0    0.019825  -0.001218
 1459.0    0.019863  -0.001223
 1460.0    0.019900  -0.001227
 1461.0    0.019937  -0.001232
 1462.0    0.019974  -0.001237
 1463.0    0.020011  -0.001242
 1464.0    0.020047  -0.001247
 1465.0    0.020084  -0.001251
 1466.0    0.020120  -0.001256
 1467.0    0.020156  -0.001261
 1468.0    0.020192  -0.001266
 1469.0    0.020227  -0.001271
 1470.0    0.020263  -0.001276
 1471.0    0.020298  -0.001282
 1472.0    0.020333  -0.001287
 1473.0    0.020368  -0.001292
 1474.0    0.020403  -0.001297
 1475.0    0.020438  -0.001302
 1476.0    0.020472  -0.001307
 1477.0    0.020506  -0.001313
 1478.0    0.020540  -0.001318
 1479.0    0.020574  -0.001323
 1480.0    0.020607  -0.001329
 1481.0    0.020641  -0.001334
 1482.0    0.020674  -0.001340
 1483.0    0.020707  -0.001345
 1484.0    0.020740  -0.001351
 1485.0    0.020773  -0.001356
 1486.0    0.020805  -0.001362
 1487.0    0.020837  -0.001368
 1488.0    0.020869  -0.001373
 1489.0    0.020901  -0.001379
 1490.0    0.020934  -0.001385
 1491.0    0.020965  -0.001391
 1492.0    0.020996  -0.001397
 1493.0    0.021027  -0.001402
 1494.0    0.021059  -0.001408
 1495.0    0.021090  -0.001414
 1496.0    0.021120  -0.001420
 1497.0    0.021151  -0.001426
 1498.0    0.021181  -0.001432
 1499.0    0.021212  -0.001438
 1500.0    0.021242  -0.001445
 1501.0    0.021271  -0.001449
 1502.0    0.021299  -0.001453
 1503.0    0.021328  -0.001457
 1504.0    0.021356  -0.001461
 1505.0    0.021385  -0.001465
 1506.0    0.021415  -0.001474
 1507.0    0.021445  -0.001483
 1508.0    0.021475  -0.001492
 1509.0    0.021505  -0.001501
 1510.0    0.021535  -0.001510
 1511.0    0.021563  -0.001517
 1512.0    0.021590  -0.001524
 1513.0    0.021618  -0.001531
 1514.0    0.021646  -0.001537
 1515.0    0.021674  -0.001544
 1516.0    0.021702  -0.001551
 1517.0    0.021729  -0.001558
 1518.0    0.021756  -0.001565
 1519.0    0.021783  -0.001572
 1520.0    0.021810  -0.001579
 1521.0    0.021837  -0.001587
 1522.0    0.021863  -0.001594
 1523.0    0.021890  -0.001601
 1524.0    0.021916  -0.001609
 1525.0    0.021943  -0.001616
 1526.0    0.021968  -0.001624
 1527.0    0.021994  -0.001631
 1528.0    0.022020  -0.001639
 1529.0    0.022045  -0.001646
 1530.0    0.022071  -0.001654
 1531.0    0.022096  -0.001662
 1532.0    0.022121  -0.001670
 1533.0    0.022146  -0.001678
 1534.0    0.022171  -0.001685
 1535.0    0.022196  -0.001693
 1536.0    0.022220  -0.001701
 1537.0    0.022245  -0.001710
 1538.0    0.022269  -0.001718
 1539.0    0.022293  -0.001726
 1540.0    0.022318  -0.001734
 1541.0    0.022341  -0.001742
 1542.0    0.022365  -0.001751
 1543.0    0.022389  -0.001759
 1544.0    0.022412  -0.001768
 1545.0    0.022436  -0.001776
 1546.0    0.022459  -0.001785
 1547.0    0.022482  -0.001794
 1548.0    0.022505  -0.001802
 1549.0    0.022528  -0.001811
 1550.0    0.022551  -0.001820
 1551.0    0.022573  -0.001829
 1552.0    0.022596  -0.001838
 1553.0    0.022618  -0.001847
 1554.0    0.022641  -0.001856
 1555.0    0.022663  -0.001865
 1556.0    0.022685  -0.001874
 1557.0    0.022707  -0.001883
 1558.0    0.022728  -0.001893
 1559.0    0.022750  -0.001902
 1560.0    0.022772  -0.001911
 1561.0    0.022793  -0.001921
 1562.0    0.022815  -0.001930
 1563.0    0.022836  -0.001940
 1564.0    0.022857  -0.001950
 1565.0    0.022878  -0.001959
 1566.0    0.022899  -0.001969
 1567.0    0.022920  -0.001979
 1568.0    0.022940  -0.001989
 1569.0    0.022961  -0.001999
 1570.0    0.022982  -0.002009
 1571.0    0.023002  -0.002019
 1572.0    0.023022  -0.002029
 1573.0    0.023043  -0.002039
 1574.0    0.023063  -0.002050
 1575.0    0.023083  -0.002060
 1576.0    0.023103  -0.002070
 1577.0    0.023123  -0.002081
 1578.0    0.023142  -0.002091
 1579.0    0.023162  -0.002102
 1580.0    0.023182  -0.002112
 1581.0    0.023201  -0.002123
 1582.0    0.023220  -0.002134
 1583.0    0.023240  -0.002145
 1584.0    0.023259  -0.002155
 1585.0    0.023278  -0.002166
 1586.0    0.023297  -0.002177
 1587.0    0.023316  -0.002189
 1588.0    0.023335  -0.002200
 1589.0    0.023354  -0.002211
 1590.0    0.023373  -0.002222
 1591.0    0.023391  -0.002233
 1592.0    0.023410  -0.002245
 1593.0    0.023428  -0.002256
 1594.0    0.023447  -0.002267
 1595.0    0.023465  -0.002279
 1596.0    0.023483  -0.002290
 1597.0    0.023502  -0.002302
 1598.0    0.023520  -0.002314
 1599.0    0.023538  -0.002325
 1600.0    0.023556  -0.002337
 1601.0    0.023574  -0.002349
 1602.0    0.023593  -0.002362
 1603.0    0.023611  -0.002374
 1604.0    0.023629  -0.002387
 1605.0    0.023648  -0.002399
 1606.0    0.023665  -0.002411
 1607.0    0.023682  -0.002423
 1608.0    0.023699  -0.002435
 1609.0    0.023717  -0.002447
 1610.0    0.023734  -0.002459
 1611.0    0.023751  -0.002471
 1612.0    0.023769  -0.002484
 1613.0    0.023786  -0.002496
 1614.0    0.023803  -0.002509
 1615.0    0.023820  -0.002521
 1616.0    0.023837  -0.002534
 1617.0    0.023855  -0.002547
 1618.0    0.023872  -0.002560
 1619.0    0.023889  -0.002573
 1620.0    0.023906  -0.002585
 1621.0    0.023923  -0.002598
 1622.0    0.023940  -0.002611
 1623.0    0.023957  -0.002624
 1624.0    0.023973  -0.002637
 1625.0    0.023990  -0.002650
 1626.0    0.024007  -0.002664
 1627.0    0.024024  -0.002677
 1628.0    0.024041  -0.002690
 1629.0    0.024057  -0.002704
 1630.0    0.024074  -0.002717
 1631.0    0.024091  -0.002730
 1632.0    0.024107  -0.002744
 1633.0    0.024124  -0.002757
 1634.0    0.024141  -0.002771
 1635.0    0.024157  -0.002784
 1636.0    0.024174  -0.002798
 1637.0    0.024190  -0.002812
 1638.0    0.024207  -0.002825
 1639.0    0.024223  -0.002839
 1640.0    0.024240  -0.002853
 1641.0    0.024256  -0.002867
 1642.0    0.024273  -0.002881
 1643.0    0.024289  -0.002894
 1644.0    0.024306  -0.002908
 1645.0    0.024322  -0.002922
 1646.0    0.024339  -0.002936
 1647.0    0.024355  -0.002950
 1648.0    0.024372  -0.002964
 1649.0    0.024388  -0.002979
 1650.0    0.024405  -0.002993
 1651.0    0.024421  -0.003007
 1652.0    0.024437  -0.003021
 1653.0    0.024454  -0.003035
 1654.0    0.024470  -0.003050
 1655.0    0.024487  -0.003064
 1656.0    0.024503  -0.003078
 1657.0    0.024520  -0.003093
 1658.0    0.024536  -0.003107
 1659.0    0.024553  -0.003121
 1660.0    0.024569  -0.003136
 1661.0    0.024586  -0.003150
 1662.0    0.024602  -0.003165
 1663.0    0.024619  -0.003179
 1664.0    0.024636  -0.003194
 1665.0    0.024652  -0.003208
 1666.0    0.024669  -0.003223
 1667.0    0.024685  -0.003237
 1668.0    0.024702  -0.003252
 1669.0    0.024719  -0.003266
 1670.0    0.024735  -0.003281
 1671.0    0.024752  -0.003296
 1672.0    0.024769  -0.003310
 1673.0    0.024786  -0.003325
 1674.0    0.024803  -0.003339
 1675.0    0.024819  -0.003354
 1676.0    0.024836  -0.003369
 1677.0    0.024853  -0.003383
 1678.0    0.024870  -0.003398
 1679.0    0.024887  -0.003413
 1680.0    0.024904  -0.003427
 1681.0    0.024921  -0.003442
 1682.0    0.024938  -0.003457
 1683.0    0.024956  -0.003472
 1684.0    0.024973  -0.003486
 1685.0    0.024990  -0.003501
 1686.0    0.025007  -0.003516
 1687.0    0.025025  -0.003530
 1688.0    0.025042  -0.003545
 1689.0    0.025059  -0.003560
 1690.0    0.025077  -0.003574
 1691.0    0.025094  -0.003589
 1692.0    0.025112  -0.003604
 1693.0    0.025129  -0.003618
 1694.0    0.025147  -0.003633
 1695.0    0.025165  -0.003647
 1696.0    0.025183  -0.003662
 1697.0    0.025200  -0.003677
 1698.0    0.025218  -0.003691
 1699.0    0.025236  -0.003706
 1700.0    0.025254  -0.003720
 1701.0    0.025272  -0.003735
 1702.0    0.025290  -0.003749
 1703.0    0.025309  -0.003764
 1704.0    0.025327  -0.003778
 1705.0    0.025345  -0.003792
 1706.0    0.025363  -0.003807
 1707.0    0.025382  -0.003821
 1708.0    0.025400  -0.003835
 1709.0    0.025419  -0.003850
 1710.0    0.025437  -0.003864
 1711.0    0.025456  -0.003878
 1712.0    0.025475  -0.003892
 1713.0    0.025494  -0.003906
 1714.0    0.025513  -0.003920
 1715.0    0.025532  -0.003935
 1716.0    0.025551  -0.003948
 1717.0    0.025570  -0.003962
 1718.0    0.025589  -0.003976
 1719.0    0.025608  -0.003990
 1720.0    0.025628  -0.004004
 1721.0    0.025647  -0.004018
 1722.0    0.025667  -0.004031
