   W         M4-(K+_L)
 (MeV)      Re         Im
1614.0	-0.000003	0.000009
1615.0	-0.000004	0.000013
1616.0	-0.000006	0.000018
1617.0	-0.000008	0.000024
1618.0	-0.000010	0.000031
1619.0	-0.000013	0.000039
1620.0	-0.000016	0.000047
1621.0	-0.000019	0.000057
1622.0	-0.000023	0.000067
1623.0	-0.000027	0.000077
1624.0	-0.000031	0.000090
1625.0	-0.000036	0.000103
1626.0	-0.000041	0.000116
1627.0	-0.000047	0.000130
1628.0	-0.000052	0.000146
1629.0	-0.000059	0.000162
1630.0	-0.000065	0.000178
1631.0	-0.000072	0.000196
1632.0	-0.000079	0.000215
1633.0	-0.000087	0.000234
1634.0	-0.000095	0.000254
1635.0	-0.000104	0.000275
1636.0	-0.000113	0.000297
1637.0	-0.000123	0.000320
1638.0	-0.000132	0.000343
1639.0	-0.000143	0.000367
1640.0	-0.000154	0.000393
1641.0	-0.000165	0.000419
1642.0	-0.000177	0.000445
1643.0	-0.000189	0.000473
1644.0	-0.000202	0.000501
1645.0	-0.000215	0.000530
1646.0	-0.000228	0.000560
1647.0	-0.000243	0.000591
1648.0	-0.000257	0.000623
1649.0	-0.000273	0.000655
1650.0	-0.000288	0.000689
1651.0	-0.000305	0.000723
1652.0	-0.000322	0.000758
1653.0	-0.000339	0.000793
1654.0	-0.000357	0.000830
1655.0	-0.000375	0.000867
1656.0	-0.000394	0.000905
1657.0	-0.000414	0.000944
1658.0	-0.000434	0.000984
1659.0	-0.000455	0.001024
1660.0	-0.000477	0.001065
1661.0	-0.000499	0.001107
1662.0	-0.000521	0.001150
1663.0	-0.000545	0.001193
1664.0	-0.000569	0.001238
1665.0	-0.000593	0.001283
1666.0	-0.000618	0.001329
1667.0	-0.000644	0.001375
1668.0	-0.000671	0.001423
1669.0	-0.000698	0.001471
1670.0	-0.000726	0.001520
1671.0	-0.000754	0.001569
1672.0	-0.000784	0.001620
1673.0	-0.000814	0.001671
1674.0	-0.000844	0.001723
1675.0	-0.000876	0.001775
1676.0	-0.000908	0.001828
1677.0	-0.000941	0.001882
1678.0	-0.000974	0.001937
1679.0	-0.001009	0.001993
1680.0	-0.001044	0.002049
1681.0	-0.001080	0.002106
1682.0	-0.001116	0.002163
1683.0	-0.001154	0.002222
1684.0	-0.001192	0.002281
1685.0	-0.001231	0.002341
1686.0	-0.001270	0.002401
1687.0	-0.001311	0.002462
1688.0	-0.001352	0.002524
1689.0	-0.001395	0.002586
1690.0	-0.001438	0.002649
1691.0	-0.001482	0.002713
1692.0	-0.001526	0.002778
1693.0	-0.001572	0.002843
1694.0	-0.001618	0.002892
1695.0	-0.001666	0.002975
1696.0	-0.001714	0.003042
1697.0	-0.001763	0.003110
1698.0	-0.001813	0.003178
1699.0	-0.001864	0.003247
1700.0	-0.001916	0.003316
1701.0	-0.001968	0.003387
1702.0	-0.002022	0.003457
1703.0	-0.002076	0.003529
1704.0	-0.002132	0.003601
1705.0	-0.002188	0.003673
1706.0	-0.002246	0.003746
1707.0	-0.002304	0.003820
1708.0	-0.002363	0.003894
1709.0	-0.002424	0.003969
1710.0	-0.002485	0.004044
1711.0	-0.002547	0.004120
1712.0	-0.002611	0.004197
1713.0	-0.002675	0.004274
1714.0	-0.002740	0.004351
1715.0	-0.002806	0.004429
1716.0	-0.002874	0.004508
1717.0	-0.002942	0.004587
1718.0	-0.003012	0.004667
1719.0	-0.003082	0.004747
1720.0	-0.003154	0.004827
1721.0	-0.003226	0.004908
1722.0	-0.003300	0.004990
1723.0	-0.003375	0.005072
1724.0	-0.003450	0.005154
1725.0	-0.003527	0.005237
1726.0	-0.003605	0.005320
1727.0	-0.003684	0.005404
1728.0	-0.003765	0.005488
1729.0	-0.003846	0.005573
1730.0	-0.003928	0.005658
1731.0	-0.004012	0.005743
1732.0	-0.004097	0.005829
1733.0	-0.004183	0.005915
1734.0	-0.004270	0.006001
1735.0	-0.004358	0.006088
1736.0	-0.004447	0.006175
1737.0	-0.004538	0.006263
1738.0	-0.004629	0.006351
1739.0	-0.004722	0.006439
1740.0	-0.004816	0.006528
1741.0	-0.004912	0.006616
1742.0	-0.005008	0.006705
1743.0	-0.005106	0.006795
1744.0	-0.005205	0.006885
1745.0	-0.005305	0.006975
1746.0	-0.005406	0.007065
1747.0	-0.005509	0.007155
1748.0	-0.005612	0.007246
1749.0	-0.005717	0.007337
1750.0	-0.005824	0.007428
1751.0	-0.005931	0.007519
1752.0	-0.006040	0.007611
1753.0	-0.006150	0.007703
1754.0	-0.006262	0.007794
1755.0	-0.006374	0.007887
1756.0	-0.006488	0.007979
1757.0	-0.006603	0.008071
1758.0	-0.006720	0.008164
1759.0	-0.006837	0.008256
1760.0	-0.006957	0.008349
1761.0	-0.007077	0.008442
1762.0	-0.007199	0.008535
1763.0	-0.007322	0.008628
1764.0	-0.007446	0.008721
1765.0	-0.007572	0.008814
1766.0	-0.007698	0.008907
1767.0	-0.007827	0.009001
1768.0	-0.007956	0.009094
1769.0	-0.008087	0.009187
1770.0	-0.008220	0.009280
1771.0	-0.008353	0.009374
1772.0	-0.008488	0.009467
1773.0	-0.008625	0.009560
1774.0	-0.008763	0.009653
1775.0	-0.008902	0.009746
1776.0	-0.009042	0.009839
1777.0	-0.009184	0.009932
1778.0	-0.009327	0.010025
1779.0	-0.009472	0.010118
1780.0	-0.009618	0.010210
1781.0	-0.009765	0.010303
1782.0	-0.009914	0.010395
1783.0	-0.010064	0.010487
1784.0	-0.010215	0.010579
1785.0	-0.010368	0.010671
1786.0	-0.010523	0.010763
1787.0	-0.010678	0.010854
1788.0	-0.010836	0.010945
1789.0	-0.010994	0.011036
1790.0	-0.011154	0.011127
1791.0	-0.011315	0.011217
1792.0	-0.011478	0.011307
1793.0	-0.011642	0.011397
1794.0	-0.011808	0.011487
1795.0	-0.011975	0.011576
1796.0	-0.012143	0.011665
1797.0	-0.012313	0.011754
1798.0	-0.012484	0.011842
1799.0	-0.012657	0.011930
1800.0	-0.012831	0.012017
1801.0	-0.013006	0.012104
1802.0	-0.013183	0.012191
1803.0	-0.013362	0.012277
1804.0	-0.013541	0.012363
1805.0	-0.013723	0.012448
1806.0	-0.013905	0.012533
1807.0	-0.014089	0.012618
1808.0	-0.014275	0.012701
1809.0	-0.014462	0.012785
1810.0	-0.014650	0.012868
1811.0	-0.014840	0.012950
1812.0	-0.015031	0.013032
1813.0	-0.015223	0.013113
1814.0	-0.015417	0.013194
1815.0	-0.015613	0.013274
1816.0	-0.015810	0.013353
1817.0	-0.016008	0.013432
1818.0	-0.016208	0.013511
1819.0	-0.016409	0.013588
1820.0	-0.016611	0.013665
1821.0	-0.016815	0.013741
1822.0	-0.017021	0.013817
1823.0	-0.017227	0.013892
1824.0	-0.017436	0.013966
1825.0	-0.017645	0.014039
1826.0	-0.017856	0.014112
1827.0	-0.018069	0.014184
1828.0	-0.018282	0.014255
1829.0	-0.018498	0.014325
1830.0	-0.018714	0.014395
1831.0	-0.018932	0.014463
1832.0	-0.019151	0.014531
1833.0	-0.019372	0.014598
1834.0	-0.019594	0.014664
1835.0	-0.019818	0.014730
1836.0	-0.020043	0.014794
1837.0	-0.020269	0.014857
1838.0	-0.020497	0.014920
1839.0	-0.020725	0.014982
1840.0	-0.020956	0.015042
1841.0	-0.021187	0.015102
1842.0	-0.021421	0.015161
1843.0	-0.021655	0.015218
1844.0	-0.021891	0.015275
1845.0	-0.022128	0.015331
1846.0	-0.022366	0.015385
1847.0	-0.022606	0.015439
1848.0	-0.022847	0.015491
1849.0	-0.023089	0.015543
1850.0	-0.023333	0.015593
1851.0	-0.023578	0.015642
1852.0	-0.023824	0.015690
1853.0	-0.024072	0.015737
1854.0	-0.024320	0.015783
1855.0	-0.024571	0.015827
1856.0	-0.024822	0.015871
1857.0	-0.025075	0.015913
1858.0	-0.025328	0.015954
1859.0	-0.025584	0.015994
1860.0	-0.025840	0.016032
1861.0	-0.026098	0.016070
1862.0	-0.026356	0.016106
1863.0	-0.026617	0.016140
1864.0	-0.026878	0.016174
1865.0	-0.027140	0.016206
1866.0	-0.027404	0.016236
1867.0	-0.027669	0.016266
1868.0	-0.027935	0.016294
1869.0	-0.028202	0.016321
1870.0	-0.028471	0.016346
1871.0	-0.028740	0.016370
1872.0	-0.029011	0.016392
1873.0	-0.029283	0.016413
1874.0	-0.029556	0.016433
1875.0	-0.029830	0.016451
1876.0	-0.030105	0.016468
1877.0	-0.030382	0.016483
1878.0	-0.030659	0.016497
1879.0	-0.030938	0.016509
1880.0	-0.031217	0.016519
1881.0	-0.031498	0.016529
1882.0	-0.031780	0.016536
1883.0	-0.032062	0.016542
1884.0	-0.032346	0.016547
1885.0	-0.032631	0.016549
1886.0	-0.032917	0.016551
1887.0	-0.033203	0.016550
1888.0	-0.033491	0.016548
1889.0	-0.033780	0.016545
1890.0	-0.034070	0.016539
1891.0	-0.034360	0.016532
1892.0	-0.034652	0.016524
1893.0	-0.034945	0.016513
1894.0	-0.035238	0.016501
1895.0	-0.035533	0.016487
1896.0	-0.035828	0.016472
1897.0	-0.036124	0.016455
1898.0	-0.036421	0.016436
1899.0	-0.036719	0.016415
1900.0	-0.037018	0.016392
1901.0	-0.037317	0.016368
1902.0	-0.037617	0.016342
1903.0	-0.037919	0.016314
1904.0	-0.038221	0.016284
1905.0	-0.038523	0.016252
1906.0	-0.038827	0.016219
1907.0	-0.039131	0.016183
1908.0	-0.039436	0.016146
1909.0	-0.039742	0.016107
1910.0	-0.040048	0.016066
1911.0	-0.040355	0.016023
1912.0	-0.040663	0.015978
1913.0	-0.040972	0.015931
1914.0	-0.041281	0.015882
1915.0	-0.041590	0.015832
1916.0	-0.041901	0.015779
1917.0	-0.042212	0.015725
1918.0	-0.042523	0.015668
1919.0	-0.042835	0.015609
1920.0	-0.043148	0.015549
1921.0	-0.043461	0.015486
1922.0	-0.043775	0.015421
1923.0	-0.044089	0.015355
1924.0	-0.044404	0.015286
1925.0	-0.044719	0.015215
1926.0	-0.045035	0.015143
1927.0	-0.045351	0.015068
1928.0	-0.045668	0.014991
1929.0	-0.045985	0.014912
1930.0	-0.046302	0.014830
1931.0	-0.046620	0.014747
1932.0	-0.046938	0.014662
1933.0	-0.047257	0.014574
1934.0	-0.047575	0.014485
1935.0	-0.047895	0.014393
1936.0	-0.048214	0.014299
1937.0	-0.048534	0.014203
1938.0	-0.048854	0.014105
1939.0	-0.049174	0.014004
1940.0	-0.049494	0.013902
1941.0	-0.049815	0.013797
1942.0	-0.050136	0.013690
1943.0	-0.050457	0.013581
1944.0	-0.050778	0.013470
1945.0	-0.051099	0.013356
1946.0	-0.051421	0.013240
1947.0	-0.051742	0.013122
1948.0	-0.052064	0.013002
1949.0	-0.052385	0.012880
1950.0	-0.052707	0.012755
1951.0	-0.053029	0.012628
1952.0	-0.053350	0.012499
1953.0	-0.053672	0.012367
1954.0	-0.053994	0.012233
1955.0	-0.054316	0.012098
1956.0	-0.054637	0.011959
1957.0	-0.054959	0.011819
1958.0	-0.055280	0.011676
1959.0	-0.055601	0.011531
1960.0	-0.055922	0.011383
1961.0	-0.056243	0.011234
1962.0	-0.056564	0.011082
1963.0	-0.056884	0.010927
1964.0	-0.057205	0.010771
1965.0	-0.057525	0.010612
1966.0	-0.057845	0.010451
1967.0	-0.058164	0.010287
1968.0	-0.058483	0.010121
1969.0	-0.058802	0.009953
1970.0	-0.059121	0.009782
1971.0	-0.059439	0.009609
1972.0	-0.059757	0.009434
1973.0	-0.060074	0.009257
1974.0	-0.060391	0.009077
1975.0	-0.060707	0.008895
1976.0	-0.061023	0.008710
1977.0	-0.061339	0.008523
1978.0	-0.061654	0.008334
1979.0	-0.061969	0.008143
1980.0	-0.062282	0.007949
1981.0	-0.062596	0.007753
1982.0	-0.062909	0.007554
1983.0	-0.063221	0.007353
1984.0	-0.063532	0.007150
1985.0	-0.063843	0.006944
1986.0	-0.064154	0.006737
1987.0	-0.064463	0.006526
1988.0	-0.064772	0.006314
1989.0	-0.065080	0.006099
1990.0	-0.065387	0.005882
1991.0	-0.065694	0.005662
1992.0	-0.066000	0.005440
1993.0	-0.066305	0.005216
1994.0	-0.066609	0.004989
1995.0	-0.066912	0.004760
1996.0	-0.067214	0.004529
1997.0	-0.067516	0.004296
1998.0	-0.067816	0.004060
1999.0	-0.068116	0.003822
2000.0	-0.068414	0.003581
2001.0	-0.068712	0.003338
2002.0	-0.069009	0.003093
2003.0	-0.069304	0.002846
2004.0	-0.069599	0.002596
2005.0	-0.069892	0.002344
2006.0	-0.070184	0.002090
2007.0	-0.070476	0.001833
2008.0	-0.070766	0.001574
2009.0	-0.071055	0.001313
2010.0	-0.071343	0.001050
2011.0	-0.071629	0.000784
2012.0	-0.071915	0.000516
2013.0	-0.072199	0.000246
2014.0	-0.072482	-0.000026
2015.0	-0.072763	-0.000301
2016.0	-0.073043	-0.000578
2017.0	-0.073322	-0.000857
2018.0	-0.073600	-0.001138
2019.0	-0.073876	-0.001422
2020.0	-0.074151	-0.001707
2021.0	-0.074425	-0.001995
2022.0	-0.074697	-0.002285
2023.0	-0.074967	-0.002578
2024.0	-0.075236	-0.002872
2025.0	-0.075504	-0.003169
2026.0	-0.075770	-0.003467
2027.0	-0.076035	-0.003768
2028.0	-0.076298	-0.004071
2029.0	-0.076559	-0.004377
2030.0	-0.076819	-0.004684
2031.0	-0.077077	-0.004993
2032.0	-0.077334	-0.005305
2033.0	-0.077589	-0.005619
2034.0	-0.077842	-0.005934
2035.0	-0.078094	-0.006252
2036.0	-0.078344	-0.006572
2037.0	-0.078592	-0.006894
2038.0	-0.078839	-0.007218
2039.0	-0.079083	-0.007544
2040.0	-0.079326	-0.007872
2041.0	-0.079568	-0.008202
2042.0	-0.079807	-0.008534
2043.0	-0.080044	-0.008868
2044.0	-0.080280	-0.009204
2045.0	-0.080514	-0.009542
2046.0	-0.080745	-0.009882
2047.0	-0.080975	-0.010223
2048.0	-0.081203	-0.010567
2049.0	-0.081429	-0.010913
2050.0	-0.081653	-0.011260
2051.0	-0.081875	-0.011610
2052.0	-0.082095	-0.011961
2053.0	-0.082313	-0.012314
2054.0	-0.082529	-0.012669
2055.0	-0.082743	-0.013026
2056.0	-0.082955	-0.013385
2057.0	-0.083164	-0.013745
2058.0	-0.083372	-0.014107
2059.0	-0.083577	-0.014471
2060.0	-0.083780	-0.014837
2061.0	-0.083981	-0.015204
2062.0	-0.084180	-0.015574
2063.0	-0.084377	-0.015945
2064.0	-0.084571	-0.016317
2065.0	-0.084763	-0.016691
2066.0	-0.084953	-0.017067
2067.0	-0.085141	-0.017445
2068.0	-0.085326	-0.017824
2069.0	-0.085509	-0.018205
2070.0	-0.085690	-0.018587
2071.0	-0.085869	-0.018971
2072.0	-0.086045	-0.019357
2073.0	-0.086218	-0.019744
2074.0	-0.086389	-0.020133
2075.0	-0.086558	-0.020523
2076.0	-0.086725	-0.020915
2077.0	-0.086889	-0.021308
2078.0	-0.087050	-0.021702
2079.0	-0.087209	-0.022098
2080.0	-0.087366	-0.022496
2081.0	-0.087520	-0.022895
2082.0	-0.087672	-0.023295
2083.0	-0.087821	-0.023696
2084.0	-0.087967	-0.024099
2085.0	-0.088111	-0.024504
2086.0	-0.088253	-0.024909
2087.0	-0.088391	-0.025316
2088.0	-0.088528	-0.025724
2089.0	-0.088661	-0.026133
2090.0	-0.088792	-0.026544
2091.0	-0.088921	-0.026956
2092.0	-0.089046	-0.027369
2093.0	-0.089170	-0.027783
2094.0	-0.089290	-0.028198
2095.0	-0.089408	-0.028615
2096.0	-0.089523	-0.029032
2097.0	-0.089635	-0.029451
2098.0	-0.089745	-0.029871
2099.0	-0.089852	-0.030291
2100.0	-0.089956	-0.030713
2101.0	-0.090057	-0.031136
2102.0	-0.090156	-0.031560
2103.0	-0.090252	-0.031984
2104.0	-0.090345	-0.032410
2105.0	-0.090435	-0.032837
2106.0	-0.090522	-0.033264
2107.0	-0.090607	-0.033692
2108.0	-0.090689	-0.034122
2109.0	-0.090768	-0.034552
2110.0	-0.090844	-0.034983
2111.0	-0.090917	-0.035414
2112.0	-0.090988	-0.035846
2113.0	-0.091055	-0.036280
2114.0	-0.091120	-0.036713
2115.0	-0.091182	-0.037148
2116.0	-0.091241	-0.037583
2117.0	-0.091297	-0.038019
2118.0	-0.091350	-0.038455
2119.0	-0.091400	-0.038892
2120.0	-0.091447	-0.039330
2121.0	-0.091492	-0.039768
2122.0	-0.091533	-0.040207
2123.0	-0.091571	-0.040646
2124.0	-0.091607	-0.041086
2125.0	-0.091639	-0.041526
2126.0	-0.091669	-0.041967
2127.0	-0.091696	-0.042408
2128.0	-0.091719	-0.042849
2129.0	-0.091740	-0.043291
2130.0	-0.091757	-0.043733
2131.0	-0.091772	-0.044176
2132.0	-0.091784	-0.044618
2133.0	-0.091792	-0.045061
2134.0	-0.091798	-0.045505
2135.0	-0.091801	-0.045948
2136.0	-0.091800	-0.046392
2137.0	-0.091797	-0.046836
2138.0	-0.091790	-0.047280
2139.0	-0.091781	-0.047724
2140.0	-0.091768	-0.048168
2141.0	-0.091753	-0.048612
2142.0	-0.091734	-0.049057
2143.0	-0.091713	-0.049501
2144.0	-0.091688	-0.049945
2145.0	-0.091660	-0.050390
2146.0	-0.091630	-0.050834
2147.0	-0.091596	-0.051278
2148.0	-0.091559	-0.051722
2149.0	-0.091519	-0.052166
2150.0	-0.091476	-0.052610
2151.0	-0.091430	-0.053054
2152.0	-0.091381	-0.053498
2153.0	-0.091329	-0.053941
2154.0	-0.091274	-0.054384
2155.0	-0.091216	-0.054827
2156.0	-0.091155	-0.055269
2157.0	-0.091091	-0.055711
2158.0	-0.091024	-0.056153
2159.0	-0.090953	-0.056594
2160.0	-0.090880	-0.057035
2161.0	-0.090804	-0.057476
2162.0	-0.090724	-0.057916
2163.0	-0.090642	-0.058356
2164.0	-0.090556	-0.058795
2165.0	-0.090468	-0.059234
2166.0	-0.090376	-0.059672
2167.0	-0.090282	-0.060109
2168.0	-0.090184	-0.060546
2169.0	-0.090084	-0.060983
2170.0	-0.089980	-0.061418
2171.0	-0.089874	-0.061853
2172.0	-0.089764	-0.062288
2173.0	-0.089652	-0.062721
2174.0	-0.089536	-0.063154
2175.0	-0.089417	-0.063586
2176.0	-0.089296	-0.064018
2177.0	-0.089171	-0.064448
2178.0	-0.089044	-0.064878
2179.0	-0.088914	-0.065306
2180.0	-0.088780	-0.065735
2181.0	-0.088644	-0.066162
2182.0	-0.088505	-0.066588
2183.0	-0.088362	-0.067013
2184.0	-0.088217	-0.067437
2185.0	-0.088069	-0.067860
2186.0	-0.087918	-0.068282
2187.0	-0.087764	-0.068703
2188.0	-0.087608	-0.069123
2189.0	-0.087448	-0.069542
2190.0	-0.087285	-0.069959
2191.0	-0.087120	-0.070376
2192.0	-0.086952	-0.070791
2193.0	-0.086781	-0.071205
2194.0	-0.086607	-0.071618
2195.0	-0.086430	-0.072030
2196.0	-0.086250	-0.072441
2197.0	-0.086068	-0.072850
2198.0	-0.085883	-0.073258
2199.0	-0.085695	-0.073664
2200.0	-0.085504	-0.074069
2201.0	-0.085310	-0.074473
2202.0	-0.085114	-0.074875
2203.0	-0.084915	-0.075276
2204.0	-0.084713	-0.075676
2205.0	-0.084508	-0.076074
2206.0	-0.084301	-0.076470
2207.0	-0.084091	-0.076865
2208.0	-0.083879	-0.077258
2209.0	-0.083663	-0.077650
2210.0	-0.083445	-0.078041
2211.0	-0.083225	-0.078429
2212.0	-0.083001	-0.078816
2213.0	-0.082775	-0.079202
2214.0	-0.082547	-0.079586
2215.0	-0.082316	-0.079968
2216.0	-0.082082	-0.080348
2217.0	-0.081846	-0.080727
2218.0	-0.081607	-0.081103
2219.0	-0.081366	-0.081479
2220.0	-0.081122	-0.081852
2221.0	-0.080876	-0.082223
2222.0	-0.080627	-0.082593
2223.0	-0.080375	-0.082961
2224.0	-0.080122	-0.083327
2225.0	-0.079865	-0.083691
2226.0	-0.079607	-0.084053
2227.0	-0.079346	-0.084413
2228.0	-0.079082	-0.084771
2229.0	-0.078817	-0.085128
2230.0	-0.078548	-0.085482
2231.0	-0.078278	-0.085834
2232.0	-0.078005	-0.086184
2233.0	-0.077730	-0.086533
2234.0	-0.077452	-0.086879
2235.0	-0.077173	-0.087223
2236.0	-0.076891	-0.087565
2237.0	-0.076606	-0.087905
2238.0	-0.076320	-0.088242
2239.0	-0.076031	-0.088578
2240.0	-0.075740	-0.088911
2241.0	-0.075447	-0.089243
2242.0	-0.075152	-0.089572
2243.0	-0.074855	-0.089898
2244.0	-0.074555	-0.090223
2245.0	-0.074254	-0.090545
2246.0	-0.073950	-0.090865
2247.0	-0.073645	-0.091183
2248.0	-0.073337	-0.091499
2249.0	-0.073027	-0.091812
2250.0	-0.072716	-0.092123
2251.0	-0.072402	-0.092431
2252.0	-0.072087	-0.092737
2253.0	-0.071769	-0.093041
2254.0	-0.071450	-0.093342
2255.0	-0.071128	-0.093641
2256.0	-0.070805	-0.093938
2257.0	-0.070480	-0.094232
2258.0	-0.070153	-0.094524
2259.0	-0.069825	-0.094813
2260.0	-0.069494	-0.095100
2261.0	-0.069162	-0.095384
2262.0	-0.068828	-0.095666
2263.0	-0.068493	-0.095945
2264.0	-0.068155	-0.096222
2265.0	-0.067816	-0.096496
2266.0	-0.067475	-0.096767
2267.0	-0.067133	-0.097036
2268.0	-0.066789	-0.097303
2269.0	-0.066444	-0.097567
2270.0	-0.066097	-0.097828
2271.0	-0.065748	-0.098087
2272.0	-0.065398	-0.098343
2273.0	-0.065046	-0.098596
2274.0	-0.064693	-0.098847
2275.0	-0.064339	-0.099096
2276.0	-0.063983	-0.099341
2277.0	-0.063625	-0.099584
2278.0	-0.063266	-0.099824
2279.0	-0.062906	-0.100062
2280.0	-0.062545	-0.100297
2281.0	-0.062182	-0.100529
2282.0	-0.061818	-0.100758
2283.0	-0.061452	-0.100985
2284.0	-0.061086	-0.101209
2285.0	-0.060718	-0.101430
2286.0	-0.060349	-0.101649
2287.0	-0.059979	-0.101864
2288.0	-0.059607	-0.102077
2289.0	-0.059235	-0.102287
2290.0	-0.058861	-0.102495
2291.0	-0.058487	-0.102700
2292.0	-0.058111	-0.102901
2293.0	-0.057734	-0.103101
2294.0	-0.057356	-0.103297
2295.0	-0.056978	-0.103490
2296.0	-0.056598	-0.103681
2297.0	-0.056217	-0.103869
2298.0	-0.055836	-0.104054
2299.0	-0.055453	-0.104236
2300.0	-0.055070	-0.104416
2301.0	-0.054686	-0.104592
2302.0	-0.054301	-0.104766
2303.0	-0.053915	-0.104937
2304.0	-0.053529	-0.105105
2305.0	-0.053142	-0.105270
2306.0	-0.052754	-0.105433
2307.0	-0.052365	-0.105592
2308.0	-0.051976	-0.105749
2309.0	-0.051586	-0.105903
2310.0	-0.051195	-0.106054
2311.0	-0.050804	-0.106202
2312.0	-0.050413	-0.106347
2313.0	-0.050020	-0.106490
2314.0	-0.049628	-0.106629
2315.0	-0.049234	-0.106766
2316.0	-0.048841	-0.106900
2317.0	-0.048446	-0.107030
2318.0	-0.048052	-0.107159
2319.0	-0.047657	-0.107284
2320.0	-0.047261	-0.107406
2321.0	-0.046866	-0.107526
2322.0	-0.046469	-0.107642
2323.0	-0.046073	-0.107756
2324.0	-0.045676	-0.107867
2325.0	-0.045280	-0.107975
2326.0	-0.044882	-0.108080
2327.0	-0.044485	-0.108183
2328.0	-0.044088	-0.108282
2329.0	-0.043690	-0.108379
2330.0	-0.043292	-0.108473
2331.0	-0.042894	-0.108563
2332.0	-0.042496	-0.108652
2333.0	-0.042098	-0.108737
2334.0	-0.041700	-0.108819
2335.0	-0.041302	-0.108899
2336.0	-0.040904	-0.108976
2337.0	-0.040505	-0.109050
2338.0	-0.040107	-0.109121
2339.0	-0.039709	-0.109189
2340.0	-0.039312	-0.109255
2341.0	-0.038914	-0.109317
2342.0	-0.038516	-0.109377
2343.0	-0.038119	-0.109434
2344.0	-0.037722	-0.109489
2345.0	-0.037325	-0.109540
2346.0	-0.036928	-0.109589
2347.0	-0.036531	-0.109635
2348.0	-0.036135	-0.109678
2349.0	-0.035739	-0.109718
2350.0	-0.035344	-0.109756
2351.0	-0.034948	-0.109791
2352.0	-0.034553	-0.109823
2353.0	-0.034159	-0.109853
2354.0	-0.033765	-0.109880
2355.0	-0.033371	-0.109904
2356.0	-0.032978	-0.109925
2357.0	-0.032586	-0.109944
2358.0	-0.032193	-0.109960
2359.0	-0.031802	-0.109973
2360.0	-0.031411	-0.109984
2361.0	-0.031020	-0.109992
2362.0	-0.030630	-0.109997
2363.0	-0.030241	-0.110000
2364.0	-0.029852	-0.110000
2365.0	-0.029464	-0.109997
2366.0	-0.029077	-0.109992
