   W         E2-(pi0_p)
 (MeV)      Re      Im
 1074.0   -0.010   0.000
 1075.0   -0.024   0.000
 1076.0   -0.037   0.000
 1077.0   -0.050   0.000
 1078.0   -0.063   0.000
 1079.0   -0.076   0.000
 1080.0   -0.088   0.000
 1081.0   -0.101   0.000
 1082.0   -0.113   0.000
 1083.0   -0.125   0.000
 1084.0   -0.137   0.000
 1085.0   -0.150   0.000
 1086.0   -0.161   0.000
 1087.0   -0.173   0.000
 1088.0   -0.185   0.000
 1089.0   -0.196   0.000
 1090.0   -0.208   0.000
 1091.0   -0.219   0.000
 1092.0   -0.231   0.000
 1093.0   -0.242   0.000
 1094.0   -0.253   0.000
 1095.0   -0.264   0.000
 1096.0   -0.275   0.000
 1097.0   -0.285   0.000
 1098.0   -0.296   0.000
 1099.0   -0.306   0.000
 1100.0   -0.317   0.000
 1101.0   -0.327   0.000
 1102.0   -0.338   0.000
 1103.0   -0.348   0.000
 1104.0   -0.358   0.000
 1105.0   -0.368   0.000
 1106.0   -0.378   0.000
 1107.0   -0.388   0.000
 1108.0   -0.397   0.000
 1109.0   -0.407   0.000
 1110.0   -0.417   0.000
 1111.0   -0.426   0.000
 1112.0   -0.436   0.000
 1113.0   -0.445   0.000
 1114.0   -0.454   0.000
 1115.0   -0.464   0.000
 1116.0   -0.473   0.000
 1117.0   -0.482   0.000
 1118.0   -0.491   0.000
 1119.0   -0.500   0.000
 1120.0   -0.509   0.000
 1121.0   -0.517   0.000
 1122.0   -0.526   0.000
 1123.0   -0.535   0.000
 1124.0   -0.543   0.000
 1125.0   -0.552   0.000
 1126.0   -0.560   0.000
 1127.0   -0.569   0.000
 1128.0   -0.577   0.000
 1129.0   -0.585   0.000
 1130.0   -0.594   0.000
 1131.0   -0.602   0.000
 1132.0   -0.610   0.000
 1133.0   -0.618   0.000
 1134.0   -0.626   0.000
 1135.0   -0.634   0.000
 1136.0   -0.642   0.000
 1137.0   -0.650   0.000
 1138.0   -0.657   0.000
 1139.0   -0.665   0.000
 1140.0   -0.673   0.000
 1141.0   -0.680   0.000
 1142.0   -0.688   0.000
 1143.0   -0.695   0.000
 1144.0   -0.703   0.000
 1145.0   -0.710   0.000
 1146.0   -0.717   0.000
 1147.0   -0.725   0.000
 1148.0   -0.732   0.000
 1149.0   -0.739   0.000
 1150.0   -0.746   0.000
 1151.0   -0.753   0.000
 1152.0   -0.760   0.000
 1153.0   -0.767   0.000
 1154.0   -0.774   0.000
 1155.0   -0.781   0.000
 1156.0   -0.788   0.000
 1157.0   -0.795   0.000
 1158.0   -0.802   0.000
 1159.0   -0.808   0.000
 1160.0   -0.815   0.000
 1161.0   -0.822   0.000
 1162.0   -0.828   0.000
 1163.0   -0.835   0.000
 1164.0   -0.841   0.000
 1165.0   -0.848   0.000
 1166.0   -0.854   0.000
 1167.0   -0.861   0.000
 1168.0   -0.867   0.000
 1169.0   -0.873   0.000
 1170.0   -0.880   0.000
 1171.0   -0.886   0.000
 1172.0   -0.892   0.000
 1173.0   -0.898   0.000
 1174.0   -0.904   0.000
 1175.0   -0.910   0.000
 1176.0   -0.916   0.000
 1177.0   -0.922   0.000
 1178.0   -0.928   0.000
 1179.0   -0.934   0.000
 1180.0   -0.940   0.000
 1181.0   -0.946   0.000
 1182.0   -0.952   0.000
 1183.0   -0.958   0.000
 1184.0   -0.963   0.000
 1185.0   -0.969   0.000
 1186.0   -0.975   0.000
 1187.0   -0.980   0.000
 1188.0   -0.986   0.000
 1189.0   -0.992   0.000
 1190.0   -0.997   0.000
 1191.0   -1.003   0.000
 1192.0   -1.008   0.000
 1193.0   -1.014   0.000
 1194.0   -1.019   0.000
 1195.0   -1.024   0.000
 1196.0   -1.030   0.000
 1197.0   -1.035   0.000
 1198.0   -1.040   0.000
 1199.0   -1.046   0.000
 1200.0   -1.051   0.000
 1201.0   -1.056   0.000
 1202.0   -1.061   0.000
 1203.0   -1.066   0.000
 1204.0   -1.071   0.000
 1205.0   -1.076   0.000
 1206.0   -1.082   0.000
 1207.0   -1.087   0.000
 1208.0   -1.092   0.000
 1209.0   -1.096   0.000
 1210.0   -1.101   0.000
 1211.0   -1.106   0.000
 1212.0   -1.111   0.000
 1213.0   -1.116   0.000
 1214.0   -1.121   0.000
 1215.0   -1.126   0.000
 1216.0   -1.130   0.000
 1217.0   -1.135   0.000
 1218.0   -1.140   0.000
 1219.0   -1.145   0.000
 1220.0   -1.149   0.000
 1221.0   -1.154   0.000
 1222.0   -1.159   0.000
 1223.0   -1.163   0.000
 1224.0   -1.168   0.000
 1225.0   -1.172   0.000
 1226.0   -1.177   0.000
 1227.0   -1.181   0.000
 1228.0   -1.186   0.000
 1229.0   -1.190   0.000
 1230.0   -1.194   0.000
 1231.0   -1.199   0.000
 1232.0   -1.203   0.000
 1233.0   -1.208   0.000
 1234.0   -1.212   0.000
 1235.0   -1.216   0.000
 1236.0   -1.220   0.000
 1237.0   -1.225   0.000
 1238.0   -1.229   0.000
 1239.0   -1.233   0.000
 1240.0   -1.237   0.000
 1241.0   -1.241   0.000
 1242.0   -1.246   0.000
 1243.0   -1.250   0.000
 1244.0   -1.254   0.000
 1245.0   -1.258   0.000
 1246.0   -1.262   0.000
 1247.0   -1.266   0.000
 1248.0   -1.270   0.000
 1249.0   -1.274   0.000
 1250.0   -1.278   0.000
 1251.0   -1.282   0.000
 1252.0   -1.286   0.000
 1253.0   -1.290   0.000
 1254.0   -1.293   0.000
 1255.0   -1.297   0.000
 1256.0   -1.301   0.000
 1257.0   -1.305   0.000
 1258.0   -1.309   0.000
 1259.0   -1.312   0.000
 1260.0   -1.316   0.000
 1261.0   -1.320   0.000
 1262.0   -1.324   0.000
 1263.0   -1.327   0.000
 1264.0   -1.331   0.000
 1265.0   -1.335   0.000
 1266.0   -1.338   0.000
 1267.0   -1.342   0.000
 1268.0   -1.345   0.000
 1269.0   -1.349   0.000
 1270.0   -1.353   0.000
 1271.0   -1.356   0.000
 1272.0   -1.360   0.000
 1273.0   -1.363   0.000
 1274.0   -1.367   0.000
 1275.0   -1.370   0.000
 1276.0   -1.373   0.000
 1277.0   -1.377   0.000
 1278.0   -1.380   0.000
 1279.0   -1.384   0.000
 1280.0   -1.387   0.000
 1281.0   -1.390   0.000
 1282.0   -1.394   0.000
 1283.0   -1.397   0.000
 1284.0   -1.400   0.000
 1285.0   -1.404   0.000
 1286.0   -1.407   0.000
 1287.0   -1.410   0.000
 1288.0   -1.413   0.000
 1289.0   -1.416   0.000
 1290.0   -1.420   0.000
 1291.0   -1.423   0.000
 1292.0   -1.426   0.000
 1293.0   -1.429   0.000
 1294.0   -1.432   0.000
 1295.0   -1.435   0.000
 1296.0   -1.438   0.000
 1297.0   -1.441   0.000
 1298.0   -1.445   0.000
 1299.0   -1.448   0.000
 1300.0   -1.451   0.000
 1301.0   -1.454   0.000
 1302.0   -1.457   0.000
 1303.0   -1.460   0.000
 1304.0   -1.463   0.000
 1305.0   -1.465   0.000
 1306.0   -1.468   0.000
 1307.0   -1.471   0.000
 1308.0   -1.474   0.000
 1309.0   -1.477   0.000
 1310.0   -1.480   0.000
 1311.0   -1.483   0.000
 1312.0   -1.486   0.000
 1313.0   -1.488   0.000
 1314.0   -1.491   0.000
 1315.0   -1.494   0.000
 1316.0   -1.497   0.000
 1317.0   -1.500   0.000
 1318.0   -1.502   0.000
 1319.0   -1.505   0.000
 1320.0   -1.508   0.000
 1321.0   -1.510   0.000
 1322.0   -1.513   0.000
 1323.0   -1.516   0.000
 1324.0   -1.518   0.000
 1325.0   -1.521   0.000
 1326.0   -1.524   0.000
 1327.0   -1.526   0.000
 1328.0   -1.529   0.000
 1329.0   -1.532   0.000
 1330.0   -1.534   0.000
 1331.0   -1.537   0.000
 1332.0   -1.539   0.000
 1333.0   -1.542   0.000
 1334.0   -1.544   0.000
 1335.0   -1.547   0.000
 1336.0   -1.549   0.000
 1337.0   -1.552   0.000
 1338.0   -1.554   0.000
 1339.0   -1.557   0.000
 1340.0   -1.559   0.000
 1341.0   -1.561   0.000
 1342.0   -1.564   0.000
 1343.0   -1.566   0.000
 1344.0   -1.569   0.000
 1345.0   -1.571   0.000
 1346.0   -1.573   0.000
 1347.0   -1.576   0.000
 1348.0   -1.578   0.000
 1349.0   -1.580   0.000
 1350.0   -1.583   0.000
 1351.0   -1.585   0.000
 1352.0   -1.587   0.000
 1353.0   -1.590   0.000
 1354.0   -1.592   0.000
 1355.0   -1.594   0.000
 1356.0   -1.596   0.000
 1357.0   -1.598   0.000
 1358.0   -1.601   0.000
 1359.0   -1.603   0.000
 1360.0   -1.605   0.000
 1361.0   -1.607   0.000
 1362.0   -1.609   0.000
 1363.0   -1.612   0.000
 1364.0   -1.614   0.000
 1365.0   -1.616   0.000
 1366.0   -1.618   0.000
 1367.0   -1.620   0.000
 1368.0   -1.622   0.000
 1369.0   -1.624   0.000
 1370.0   -1.626   0.000
 1371.0   -1.628   0.000
 1372.0   -1.630   0.000
 1373.0   -1.632   0.000
 1374.0   -1.634   0.000
 1375.0   -1.636   0.000
 1376.0   -1.638   0.000
 1377.0   -1.640   0.000
 1378.0   -1.642   0.000
 1379.0   -1.644   0.000
 1380.0   -1.646   0.000
 1381.0   -1.648   0.000
 1382.0   -1.650   0.000
 1383.0   -1.652   0.000
 1384.0   -1.654   0.000
 1385.0   -1.656   0.000
 1386.0   -1.658   0.000
 1387.0   -1.660   0.000
 1388.0   -1.661   0.000
 1389.0   -1.663   0.000
 1390.0   -1.665   0.000
 1391.0   -1.667   0.000
 1392.0   -1.669   0.000
 1393.0   -1.671   0.000
 1394.0   -1.672   0.000
 1395.0   -1.674   0.000
 1396.0   -1.676   0.000
 1397.0   -1.678   0.000
 1398.0   -1.679   0.000
 1399.0   -1.681   0.000
 1400.0   -1.683   0.000
 1401.0   -1.685   0.000
 1402.0   -1.686   0.000
 1403.0   -1.688   0.000
 1404.0   -1.690   0.000
 1405.0   -1.691   0.000
 1406.0   -1.693   0.000
 1407.0   -1.695   0.000
 1408.0   -1.696   0.000
 1409.0   -1.698   0.000
 1410.0   -1.700   0.000
 1411.0   -1.701   0.000
 1412.0   -1.703   0.000
 1413.0   -1.705   0.000
 1414.0   -1.706   0.000
 1415.0   -1.708   0.000
 1416.0   -1.709   0.000
 1417.0   -1.711   0.000
 1418.0   -1.712   0.000
 1419.0   -1.714   0.000
 1420.0   -1.715   0.000
 1421.0   -1.717   0.000
 1422.0   -1.719   0.000
 1423.0   -1.720   0.000
 1424.0   -1.722   0.000
 1425.0   -1.723   0.000
 1426.0   -1.725   0.000
 1427.0   -1.726   0.000
 1428.0   -1.727   0.000
 1429.0   -1.729   0.000
 1430.0   -1.730   0.000
 1431.0   -1.732   0.000
 1432.0   -1.733   0.000
 1433.0   -1.735   0.000
 1434.0   -1.736   0.000
 1435.0   -1.737   0.000
 1436.0   -1.739   0.000
 1437.0   -1.740   0.000
 1438.0   -1.742   0.000
 1439.0   -1.743   0.000
 1440.0   -1.744   0.000
 1441.0   -1.746   0.000
 1442.0   -1.747   0.000
 1443.0   -1.748   0.000
 1444.0   -1.750   0.000
 1445.0   -1.751   0.000
 1446.0   -1.752   0.000
 1447.0   -1.754   0.000
 1448.0   -1.755   0.000
 1449.0   -1.756   0.000
 1450.0   -1.757   0.000
 1451.0   -1.759   0.000
 1452.0   -1.760   0.000
 1453.0   -1.761   0.000
 1454.0   -1.762   0.000
 1455.0   -1.764   0.000
 1456.0   -1.765   0.000
 1457.0   -1.766   0.000
 1458.0   -1.767   0.000
 1459.0   -1.768   0.000
 1460.0   -1.770   0.000
 1461.0   -1.771   0.000
 1462.0   -1.772   0.000
 1463.0   -1.773   0.000
 1464.0   -1.774   0.000
 1465.0   -1.775   0.000
 1466.0   -1.776   0.000
 1467.0   -1.778   0.000
 1468.0   -1.779   0.000
 1469.0   -1.780   0.000
 1470.0   -1.781   0.000
 1471.0   -1.782   0.000
 1472.0   -1.783   0.000
 1473.0   -1.784   0.000
 1474.0   -1.785   0.000
 1475.0   -1.786   0.000
 1476.0   -1.787   0.000
 1477.0   -1.788   0.000
 1478.0   -1.790   0.000
 1479.0   -1.791   0.000
 1480.0   -1.792   0.000
 1481.0   -1.793   0.000
 1482.0   -1.794   0.000
 1483.0   -1.795   0.000
 1484.0   -1.796   0.000
 1485.0   -1.797   0.000
 1486.0   -1.798   0.000
 1487.0   -1.799   0.000
 1488.0   -1.800   0.000
 1489.0   -1.800   0.000
 1490.0   -1.801   0.000
 1491.0   -1.802   0.000
 1492.0   -1.803   0.000
 1493.0   -1.804   0.000
 1494.0   -1.805   0.000
 1495.0   -1.806   0.000
 1496.0   -1.807   0.000
 1497.0   -1.808   0.000
 1498.0   -1.809   0.000
 1499.0   -1.810   0.000
 1500.0   -1.811   0.000
 1501.0   -1.811   0.000
 1502.0   -1.812   0.000
 1503.0   -1.813   0.000
 1504.0   -1.814   0.000
 1505.0   -1.815   0.000
 1506.0   -1.816   0.000
 1507.0   -1.817   0.000
 1508.0   -1.817   0.000
 1509.0   -1.818   0.000
 1510.0   -1.819   0.000
 1511.0   -1.820   0.000
 1512.0   -1.821   0.000
 1513.0   -1.821   0.000
 1514.0   -1.822   0.000
 1515.0   -1.823   0.000
 1516.0   -1.824   0.000
 1517.0   -1.824   0.000
 1518.0   -1.825   0.000
 1519.0   -1.826   0.000
 1520.0   -1.827   0.000
 1521.0   -1.827   0.000
 1522.0   -1.828   0.000
 1523.0   -1.829   0.000
 1524.0   -1.830   0.000
 1525.0   -1.830   0.000
 1526.0   -1.831   0.000
 1527.0   -1.832   0.000
 1528.0   -1.832   0.000
 1529.0   -1.833   0.000
 1530.0   -1.834   0.000
 1531.0   -1.834   0.000
 1532.0   -1.835   0.000
 1533.0   -1.836   0.000
 1534.0   -1.836   0.000
 1535.0   -1.837   0.000
 1536.0   -1.838   0.000
 1537.0   -1.838   0.000
 1538.0   -1.839   0.000
 1539.0   -1.840   0.000
 1540.0   -1.840   0.000
 1541.0   -1.841   0.000
 1542.0   -1.841   0.000
 1543.0   -1.842   0.000
 1544.0   -1.843   0.000
 1545.0   -1.843   0.000
 1546.0   -1.844   0.000
 1547.0   -1.844   0.000
 1548.0   -1.845   0.000
 1549.0   -1.846   0.000
 1550.0   -1.846   0.000
 1551.0   -1.847   0.000
 1552.0   -1.847   0.000
 1553.0   -1.848   0.000
 1554.0   -1.848   0.000
 1555.0   -1.849   0.000
 1556.0   -1.849   0.000
 1557.0   -1.850   0.000
 1558.0   -1.850   0.000
 1559.0   -1.851   0.000
 1560.0   -1.851   0.000
 1561.0   -1.852   0.000
 1562.0   -1.852   0.000
 1563.0   -1.853   0.000
 1564.0   -1.853   0.000
 1565.0   -1.854   0.000
 1566.0   -1.854   0.000
 1567.0   -1.855   0.000
 1568.0   -1.855   0.000
 1569.0   -1.856   0.000
 1570.0   -1.856   0.000
 1571.0   -1.856   0.000
 1572.0   -1.857   0.000
 1573.0   -1.857   0.000
 1574.0   -1.858   0.000
 1575.0   -1.858   0.000
 1576.0   -1.859   0.000
 1577.0   -1.859   0.000
 1578.0   -1.859   0.000
 1579.0   -1.860   0.000
 1580.0   -1.860   0.000
 1581.0   -1.861   0.000
 1582.0   -1.861   0.000
 1583.0   -1.861   0.000
 1584.0   -1.862   0.000
 1585.0   -1.862   0.000
 1586.0   -1.862   0.000
 1587.0   -1.863   0.000
 1588.0   -1.863   0.000
 1589.0   -1.863   0.000
 1590.0   -1.864   0.000
 1591.0   -1.864   0.000
 1592.0   -1.864   0.000
 1593.0   -1.865   0.000
 1594.0   -1.865   0.000
 1595.0   -1.865   0.000
 1596.0   -1.866   0.000
 1597.0   -1.866   0.000
 1598.0   -1.866   0.000
 1599.0   -1.866   0.000
 1600.0   -1.867   0.000
 1601.0   -1.867   0.000
 1602.0   -1.867   0.000
 1603.0   -1.868   0.000
 1604.0   -1.868   0.000
 1605.0   -1.868   0.000
 1606.0   -1.868   0.000
 1607.0   -1.869   0.000
 1608.0   -1.869   0.000
 1609.0   -1.869   0.000
 1610.0   -1.869   0.000
 1611.0   -1.870   0.000
 1612.0   -1.870   0.000
 1613.0   -1.870   0.000
 1614.0   -1.870   0.000
 1615.0   -1.870   0.000
 1616.0   -1.871   0.000
 1617.0   -1.871   0.000
 1618.0   -1.871   0.000
 1619.0   -1.871   0.000
 1620.0   -1.871   0.000
 1621.0   -1.872   0.000
 1622.0   -1.872   0.000
 1623.0   -1.872   0.000
 1624.0   -1.872   0.000
 1625.0   -1.872   0.000
 1626.0   -1.872   0.000
 1627.0   -1.873   0.000
 1628.0   -1.873   0.000
 1629.0   -1.873   0.000
 1630.0   -1.873   0.000
 1631.0   -1.873   0.000
 1632.0   -1.873   0.000
 1633.0   -1.873   0.000
 1634.0   -1.873   0.000
 1635.0   -1.874   0.000
 1636.0   -1.874   0.000
 1637.0   -1.874   0.000
 1638.0   -1.874   0.000
 1639.0   -1.874   0.000
 1640.0   -1.874   0.000
 1641.0   -1.874   0.000
 1642.0   -1.874   0.000
 1643.0   -1.874   0.000
 1644.0   -1.874   0.000
 1645.0   -1.875   0.000
 1646.0   -1.875   0.000
 1647.0   -1.875   0.000
 1648.0   -1.875   0.000
 1649.0   -1.875   0.000
 1650.0   -1.875   0.000
 1651.0   -1.875   0.000
 1652.0   -1.875   0.000
 1653.0   -1.875   0.000
 1654.0   -1.875   0.000
 1655.0   -1.875   0.000
 1656.0   -1.875   0.000
 1657.0   -1.875   0.000
 1658.0   -1.875   0.000
 1659.0   -1.875   0.000
 1660.0   -1.875   0.000
 1661.0   -1.875   0.000
 1662.0   -1.875   0.000
 1663.0   -1.875   0.000
 1664.0   -1.875   0.000
 1665.0   -1.875   0.000
 1666.0   -1.875   0.000
 1667.0   -1.875   0.000
 1668.0   -1.875   0.000
 1669.0   -1.875   0.000
 1670.0   -1.875   0.000
 1671.0   -1.875   0.000
 1672.0   -1.875   0.000
 1673.0   -1.875   0.000
 1674.0   -1.875   0.000
 1675.0   -1.875   0.000
 1676.0   -1.875   0.000
 1677.0   -1.875   0.000
 1678.0   -1.874   0.000
 1679.0   -1.874   0.000
 1680.0   -1.874   0.000
 1681.0   -1.874   0.000
 1682.0   -1.874   0.000
 1683.0   -1.874   0.000
 1684.0   -1.874   0.000
 1685.0   -1.874   0.000
 1686.0   -1.874   0.000
 1687.0   -1.874   0.000
 1688.0   -1.874   0.000
 1689.0   -1.874   0.000
 1690.0   -1.873   0.000
 1691.0   -1.873   0.000
 1692.0   -1.873   0.000
 1693.0   -1.873   0.000
 1694.0   -1.873   0.000
 1695.0   -1.873   0.000
 1696.0   -1.873   0.000
 1697.0   -1.873   0.000
 1698.0   -1.872   0.000
 1699.0   -1.872   0.000
 1700.0   -1.872   0.000
 1701.0   -1.872   0.000
 1702.0   -1.872   0.000
 1703.0   -1.872   0.000
 1704.0   -1.871   0.000
 1705.0   -1.871   0.000
 1706.0   -1.871   0.000
 1707.0   -1.871   0.000
 1708.0   -1.871   0.000
 1709.0   -1.871   0.000
 1710.0   -1.870   0.000
 1711.0   -1.870   0.000
 1712.0   -1.870   0.000
 1713.0   -1.870   0.000
 1714.0   -1.870   0.000
 1715.0   -1.869   0.000
 1716.0   -1.869   0.000
 1717.0   -1.869   0.000
 1718.0   -1.869   0.000
 1719.0   -1.869   0.000
 1720.0   -1.868   0.000
 1721.0   -1.868   0.000
 1722.0   -1.868   0.000
 1723.0   -1.868   0.000
 1724.0   -1.867   0.000
 1725.0   -1.867   0.000
 1726.0   -1.867   0.000
 1727.0   -1.867   0.000
 1728.0   -1.866   0.000
 1729.0   -1.866   0.000
 1730.0   -1.866   0.000
 1731.0   -1.866   0.000
 1732.0   -1.865   0.000
 1733.0   -1.865   0.000
 1734.0   -1.865   0.000
 1735.0   -1.865   0.000
 1736.0   -1.864   0.000
 1737.0   -1.864   0.000
 1738.0   -1.864   0.000
 1739.0   -1.864   0.000
 1740.0   -1.863   0.000
 1741.0   -1.863   0.000
 1742.0   -1.863   0.000
 1743.0   -1.862   0.000
 1744.0   -1.862   0.000
 1745.0   -1.862   0.000
 1746.0   -1.861   0.000
 1747.0   -1.861   0.000
 1748.0   -1.861   0.000
 1749.0   -1.861   0.000
 1750.0   -1.860   0.000
 1751.0   -1.860   0.000
 1752.0   -1.860   0.000
 1753.0   -1.859   0.000
 1754.0   -1.859   0.000
 1755.0   -1.859   0.000
 1756.0   -1.858   0.000
 1757.0   -1.858   0.000
 1758.0   -1.858   0.000
 1759.0   -1.857   0.000
 1760.0   -1.857   0.000
 1761.0   -1.856   0.000
 1762.0   -1.856   0.000
 1763.0   -1.856   0.000
 1764.0   -1.855   0.000
 1765.0   -1.855   0.000
 1766.0   -1.855   0.000
 1767.0   -1.854   0.000
 1768.0   -1.854   0.000
 1769.0   -1.854   0.000
 1770.0   -1.853   0.000
 1771.0   -1.853   0.000
 1772.0   -1.852   0.000
 1773.0   -1.852   0.000
 1774.0   -1.852   0.000
 1775.0   -1.851   0.000
 1776.0   -1.851   0.000
 1777.0   -1.850   0.000
 1778.0   -1.850   0.000
 1779.0   -1.850   0.000
 1780.0   -1.849   0.000
 1781.0   -1.849   0.000
 1782.0   -1.848   0.000
 1783.0   -1.848   0.000
 1784.0   -1.848   0.000
 1785.0   -1.847   0.000
 1786.0   -1.847   0.000
 1787.0   -1.846   0.000
 1788.0   -1.846   0.000
 1789.0   -1.845   0.000
 1790.0   -1.845   0.000
 1791.0   -1.845   0.000
 1792.0   -1.844   0.000
 1793.0   -1.844   0.000
 1794.0   -1.843   0.000
 1795.0   -1.843   0.000
 1796.0   -1.842   0.000
 1797.0   -1.842   0.000
 1798.0   -1.841   0.000
 1799.0   -1.841   0.000
 1800.0   -1.840   0.000
 1801.0   -1.840   0.000
 1802.0   -1.840   0.000
 1803.0   -1.839   0.000
 1804.0   -1.839   0.000
 1805.0   -1.838   0.000
 1806.0   -1.838   0.000
 1807.0   -1.837   0.000
 1808.0   -1.837   0.000
 1809.0   -1.836   0.000
 1810.0   -1.836   0.000
 1811.0   -1.835   0.000
 1812.0   -1.835   0.000
 1813.0   -1.834   0.000
 1814.0   -1.834   0.000
 1815.0   -1.833   0.000
 1816.0   -1.833   0.000
 1817.0   -1.832   0.000
 1818.0   -1.832   0.000
 1819.0   -1.831   0.000
 1820.0   -1.831   0.000
 1821.0   -1.830   0.000
 1822.0   -1.830   0.000
 1823.0   -1.829   0.000
 1824.0   -1.829   0.000
 1825.0   -1.828   0.000
 1826.0   -1.827   0.000
 1827.0   -1.827   0.000
 1828.0   -1.826   0.000
 1829.0   -1.826   0.000
 1830.0   -1.825   0.000
 1831.0   -1.825   0.000
 1832.0   -1.824   0.000
 1833.0   -1.824   0.000
 1834.0   -1.823   0.000
 1835.0   -1.823   0.000
 1836.0   -1.822   0.000
 1837.0   -1.821   0.000
 1838.0   -1.821   0.000
 1839.0   -1.820   0.000
 1840.0   -1.820   0.000
 1841.0   -1.819   0.000
 1842.0   -1.819   0.000
 1843.0   -1.818   0.000
 1844.0   -1.818   0.000
 1845.0   -1.817   0.000
 1846.0   -1.816   0.000
 1847.0   -1.816   0.000
 1848.0   -1.815   0.000
 1849.0   -1.815   0.000
 1850.0   -1.814   0.000
 1851.0   -1.813   0.000
 1852.0   -1.813   0.000
 1853.0   -1.812   0.000
 1854.0   -1.812   0.000
 1855.0   -1.811   0.000
 1856.0   -1.810   0.000
 1857.0   -1.810   0.000
 1858.0   -1.809   0.000
 1859.0   -1.809   0.000
 1860.0   -1.808   0.000
 1861.0   -1.807   0.000
 1862.0   -1.807   0.000
 1863.0   -1.806   0.000
 1864.0   -1.806   0.000
 1865.0   -1.805   0.000
 1866.0   -1.804   0.000
 1867.0   -1.804   0.000
 1868.0   -1.803   0.000
 1869.0   -1.802   0.000
 1870.0   -1.802   0.000
 1871.0   -1.801   0.000
