   W         E2+(K+_L)
 (MeV)      Re         Im
1614.0	-0.000246	0.005674
1615.0	-0.000294	0.006620
1616.0	-0.000341	0.007538
1617.0	-0.000388	0.008437
1618.0	-0.000433	0.009319
1619.0	-0.000478	0.010189
1620.0	-0.000521	0.011048
1621.0	-0.000563	0.011897
1622.0	-0.000602	0.012739
1623.0	-0.000639	0.013573
1624.0	-0.000672	0.014401
1625.0	-0.000702	0.015222
1626.0	-0.000728	0.016037
1627.0	-0.000749	0.016846
1628.0	-0.000766	0.017648
1629.0	-0.000777	0.018443
1630.0	-0.000782	0.019231
1631.0	-0.000781	0.020012
1632.0	-0.000773	0.020783
1633.0	-0.000759	0.021546
1634.0	-0.000736	0.022299
1635.0	-0.000706	0.023041
1636.0	-0.000667	0.023772
1637.0	-0.000619	0.024490
1638.0	-0.000563	0.025194
1639.0	-0.000497	0.025884
1640.0	-0.000422	0.026559
1641.0	-0.000337	0.027217
1642.0	-0.000243	0.027857
1643.0	-0.000139	0.028479
1644.0	-0.000026	0.029081
1645.0	0.000098	0.029662
1646.0	0.000230	0.030223
1647.0	0.000373	0.030760
1648.0	0.000524	0.031275
1649.0	0.000684	0.031766
1650.0	0.000852	0.032232
1651.0	0.001029	0.032673
1652.0	0.001213	0.033089
1653.0	0.001405	0.033479
1654.0	0.001603	0.033842
1655.0	0.001807	0.034180
1656.0	0.002016	0.034490
1657.0	0.002231	0.034774
1658.0	0.002450	0.035032
1659.1	0.002672	0.035264
1660.1	0.002897	0.035470
1661.1	0.003125	0.035650
1662.1	0.003354	0.035806
1663.1	0.003584	0.035937
1664.1	0.003815	0.036045
1665.1	0.004046	0.036129
1666.1	0.004275	0.036192
1667.1	0.004504	0.036233
1668.1	0.004730	0.036254
1669.1	0.004955	0.036255
1670.1	0.005176	0.036237
1671.1	0.005394	0.036202
1672.1	0.005608	0.036150
1673.1	0.005818	0.036083
1674.1	0.006024	0.036001
1675.1	0.006225	0.035905
1676.1	0.006421	0.035796
1677.1	0.006611	0.035676
1678.1	0.006797	0.035546
1679.1	0.006976	0.035405
1680.1	0.007150	0.035256
1681.1	0.007318	0.035098
1682.1	0.007479	0.034934
1683.1	0.007635	0.034764
1684.1	0.007785	0.034588
1685.1	0.007928	0.034407
1686.1	0.008066	0.034223
1687.1	0.008198	0.034035
1688.1	0.008323	0.033845
1689.1	0.008443	0.033654
1690.1	0.008557	0.033461
1691.1	0.008665	0.033268
1692.1	0.008767	0.033074
1693.1	0.008864	0.032882
1694.1	0.008956	0.032690
1695.1	0.009042	0.032500
1696.1	0.009123	0.032311
1697.1	0.009200	0.032126
1698.1	0.009271	0.031942
1699.1	0.009338	0.031762
1700.1	0.009401	0.031586
1701.1	0.009459	0.031413
1702.1	0.009513	0.031244
1703.1	0.009563	0.031080
1704.1	0.009609	0.030920
1705.1	0.009652	0.030765
1706.1	0.009691	0.030615
1707.1	0.009726	0.030470
1708.1	0.009758	0.030330
1709.1	0.009788	0.030196
1710.1	0.009814	0.030068
1711.1	0.009837	0.029945
1712.1	0.009858	0.029828
1713.1	0.009876	0.029717
1714.1	0.009891	0.029613
1715.1	0.009904	0.029514
1716.1	0.009915	0.029422
1717.1	0.009924	0.029335
1718.1	0.009930	0.029255
1719.1	0.009935	0.029182
1720.1	0.009937	0.029114
1721.1	0.009938	0.029053
1722.1	0.009937	0.028998
1723.1	0.009935	0.028950
1724.1	0.009930	0.028908
1725.1	0.009924	0.028872
1726.1	0.009917	0.028843
1727.1	0.009908	0.028819
1728.1	0.009898	0.028802
1729.1	0.009886	0.028791
1730.1	0.009873	0.028787
1731.1	0.009859	0.028788
1732.1	0.009843	0.028795
1733.1	0.009826	0.028809
1734.1	0.009808	0.028828
1735.1	0.009789	0.028853
1736.1	0.009768	0.028884
1737.1	0.009747	0.028921
1738.1	0.009724	0.028963
1739.1	0.009700	0.029011
1740.1	0.009675	0.029065
1741.1	0.009649	0.029124
1742.1	0.009622	0.029188
1743.1	0.009593	0.029258
1744.1	0.009564	0.029333
1745.1	0.009533	0.029413
1746.1	0.009502	0.029499
1747.2	0.009469	0.029589
1748.2	0.009435	0.029685
1749.2	0.009400	0.029785
1750.2	0.009364	0.029890
1751.2	0.009326	0.030000
1752.2	0.009288	0.030115
1753.2	0.009248	0.030234
1754.2	0.009207	0.030357
1755.2	0.009165	0.030486
1756.2	0.009121	0.030618
1757.2	0.009077	0.030755
1758.2	0.009031	0.030897
1759.2	0.008984	0.031042
1760.2	0.008935	0.031192
1761.2	0.008885	0.031345
1762.2	0.008834	0.031503
1763.2	0.008781	0.031665
1764.2	0.008727	0.031830
1765.2	0.008672	0.031999
1766.2	0.008615	0.032172
1767.2	0.008556	0.032349
1768.2	0.008496	0.032529
1769.2	0.008435	0.032713
1770.2	0.008372	0.032901
1771.2	0.008307	0.033092
1772.2	0.008241	0.033286
1773.2	0.008173	0.033484
1774.2	0.008103	0.033685
1775.2	0.008032	0.033889
1776.2	0.007959	0.034096
1777.2	0.007884	0.034306
1778.2	0.007807	0.034520
1779.2	0.007729	0.034736
1780.2	0.007648	0.034956
1781.2	0.007566	0.035178
1782.2	0.007482	0.035403
1783.2	0.007396	0.035631
1784.2	0.007307	0.035862
1785.2	0.007217	0.036095
1786.2	0.007125	0.036331
1787.2	0.007031	0.036569
1788.2	0.006934	0.036810
1789.2	0.006836	0.037054
1790.2	0.006735	0.037300
1791.2	0.006632	0.037548
1792.2	0.006527	0.037798
1793.2	0.006419	0.038051
1794.2	0.006310	0.038306
1795.2	0.006198	0.038563
1796.2	0.006083	0.038823
1797.2	0.005966	0.039084
1798.2	0.005847	0.039347
1799.2	0.005726	0.039613
1800.2	0.005602	0.039880
1801.2	0.005475	0.040149
1802.2	0.005346	0.040420
1803.2	0.005214	0.040693
1804.2	0.005080	0.040967
1805.2	0.004943	0.041243
1806.2	0.004804	0.041520
1807.2	0.004662	0.041799
1808.2	0.004517	0.042080
1809.2	0.004370	0.042362
1810.2	0.004219	0.042645
1811.2	0.004067	0.042930
1812.2	0.003911	0.043216
1813.2	0.003752	0.043503
1814.2	0.003591	0.043792
1815.2	0.003427	0.044081
1816.2	0.003260	0.044372
1817.2	0.003090	0.044664
1818.2	0.002918	0.044956
1819.2	0.002742	0.045250
1820.2	0.002564	0.045544
1821.2	0.002382	0.045839
1822.2	0.002198	0.046135
1823.2	0.002010	0.046431
1824.2	0.001820	0.046728
1825.2	0.001626	0.047026
1826.2	0.001430	0.047324
1827.2	0.001231	0.047623
1828.2	0.001028	0.047922
1829.2	0.000822	0.048221
1830.2	0.000614	0.048521
1831.2	0.000402	0.048821
1832.2	0.000187	0.049121
1833.2	-0.000031	0.049421
1834.2	-0.000252	0.049721
1835.2	-0.000476	0.050021
1836.3	-0.000704	0.050321
1837.3	-0.000935	0.050621
1838.3	-0.001168	0.050921
1839.3	-0.001405	0.051221
1840.3	-0.001646	0.051520
1841.3	-0.001889	0.051819
1842.3	-0.002136	0.052117
1843.3	-0.002386	0.052415
1844.3	-0.002639	0.052712
1845.3	-0.002895	0.053009
1846.3	-0.003155	0.053305
1847.3	-0.003418	0.053600
1848.3	-0.003684	0.053895
1849.3	-0.003953	0.054188
1850.3	-0.004226	0.054481
1851.3	-0.004502	0.054772
1852.3	-0.004782	0.055063
1853.3	-0.005064	0.055352
1854.3	-0.005350	0.055641
1855.3	-0.005640	0.055928
1856.3	-0.005933	0.056213
1857.3	-0.006229	0.056497
1858.3	-0.006528	0.056780
1859.3	-0.006831	0.057061
1860.3	-0.007138	0.057341
1861.3	-0.007447	0.057619
1862.3	-0.007761	0.057895
1863.3	-0.008077	0.058169
1864.3	-0.008397	0.058442
1865.3	-0.008721	0.058712
1866.3	-0.009048	0.058981
1867.3	-0.009378	0.059247
1868.3	-0.009712	0.059511
1869.3	-0.010050	0.059773
1870.3	-0.010391	0.060033
1871.3	-0.010736	0.060290
1872.3	-0.011084	0.060545
1873.3	-0.011435	0.060797
1874.3	-0.011791	0.061047
1875.3	-0.012150	0.061293
1876.3	-0.012512	0.061538
1877.3	-0.012879	0.061779
1878.3	-0.013249	0.062017
1879.3	-0.013622	0.062253
1880.3	-0.013999	0.062485
1881.3	-0.014380	0.062714
1882.3	-0.014765	0.062940
1883.3	-0.015154	0.063163
1884.3	-0.015546	0.063382
1885.3	-0.015942	0.063598
1886.3	-0.016342	0.063811
1887.3	-0.016745	0.064019
1888.3	-0.017152	0.064224
1889.3	-0.017564	0.064425
1890.3	-0.017979	0.064623
1891.3	-0.018398	0.064816
1892.3	-0.018820	0.065006
1893.3	-0.019247	0.065191
1894.3	-0.019677	0.065372
1895.3	-0.020112	0.065549
1896.3	-0.020550	0.065721
1897.3	-0.020992	0.065889
1898.3	-0.021438	0.066053
1899.3	-0.021888	0.066212
1900.3	-0.022342	0.066366
1901.3	-0.022800	0.066516
1902.3	-0.023262	0.066660
1903.3	-0.023727	0.066800
1904.3	-0.024197	0.066935
1905.3	-0.024670	0.067065
1906.3	-0.025147	0.067189
1907.3	-0.025628	0.067309
1908.3	-0.026113	0.067423
1909.3	-0.026601	0.067531
1910.3	-0.027094	0.067635
1911.3	-0.027590	0.067732
1912.3	-0.028090	0.067824
1913.3	-0.028593	0.067911
1914.3	-0.029101	0.067991
1915.3	-0.029612	0.068066
1916.3	-0.030126	0.068135
1917.3	-0.030644	0.068198
1918.3	-0.031166	0.068254
1919.3	-0.031691	0.068305
1920.3	-0.032219	0.068350
1921.3	-0.032751	0.068388
1922.3	-0.033286	0.068420
1923.3	-0.033825	0.068445
1924.4	-0.034366	0.068464
1925.4	-0.034911	0.068477
1926.4	-0.035459	0.068483
1927.4	-0.036010	0.068482
1928.4	-0.036563	0.068475
1929.4	-0.037120	0.068460
1930.4	-0.037679	0.068439
1931.4	-0.038241	0.068411
1932.4	-0.038806	0.068377
1933.4	-0.039373	0.068335
1934.4	-0.039943	0.068286
1935.4	-0.040515	0.068230
1936.4	-0.041089	0.068167
1937.4	-0.041666	0.068097
1938.4	-0.042244	0.068020
1939.4	-0.042825	0.067935
1940.4	-0.043407	0.067843
1941.4	-0.043991	0.067744
1942.4	-0.044577	0.067638
1943.4	-0.045165	0.067524
1944.4	-0.045754	0.067403
1945.4	-0.046343	0.067274
1946.4	-0.046935	0.067138
1947.4	-0.047527	0.066994
1948.4	-0.048120	0.066843
1949.4	-0.048714	0.066684
1950.4	-0.049309	0.066518
1951.4	-0.049905	0.066345
1952.4	-0.050501	0.066164
1953.4	-0.051097	0.065975
1954.4	-0.051693	0.065779
1955.4	-0.052290	0.065575
1956.4	-0.052886	0.065364
1957.4	-0.053482	0.065146
1958.4	-0.054078	0.064919
1959.4	-0.054673	0.064686
1960.4	-0.055268	0.064445
1961.4	-0.055862	0.064196
1962.4	-0.056455	0.063941
1963.4	-0.057047	0.063677
1964.4	-0.057638	0.063407
1965.4	-0.058228	0.063129
1966.4	-0.058816	0.062844
1967.4	-0.059402	0.062552
1968.4	-0.059987	0.062252
1969.4	-0.060570	0.061945
1970.4	-0.061151	0.061632
1971.4	-0.061730	0.061311
1972.4	-0.062306	0.060983
1973.4	-0.062881	0.060649
1974.4	-0.063452	0.060307
1975.4	-0.064021	0.059959
1976.4	-0.064587	0.059604
1977.4	-0.065151	0.059242
1978.4	-0.065711	0.058874
1979.4	-0.066268	0.058499
1980.4	-0.066822	0.058118
1981.4	-0.067373	0.057730
1982.4	-0.067920	0.057337
1983.4	-0.068463	0.056937
1984.4	-0.069003	0.056530
1985.4	-0.069538	0.056118
1986.4	-0.070070	0.055700
1987.4	-0.070598	0.055276
1988.4	-0.071122	0.054846
1989.4	-0.071641	0.054411
1990.4	-0.072157	0.053970
1991.4	-0.072667	0.053523
1992.4	-0.073174	0.053072
1993.4	-0.073675	0.052614
1994.4	-0.074172	0.052152
1995.4	-0.074665	0.051684
1996.4	-0.075152	0.051212
1997.4	-0.075635	0.050734
1998.4	-0.076113	0.050252
1999.4	-0.076586	0.049764
2000.4	-0.077053	0.049273
2001.4	-0.077516	0.048776
2002.4	-0.077974	0.048275
2003.4	-0.078426	0.047770
2004.4	-0.078873	0.047260
2005.4	-0.079315	0.046747
2006.4	-0.079751	0.046229
2007.4	-0.080182	0.045707
2008.4	-0.080608	0.045181
2009.4	-0.081028	0.044651
2010.4	-0.081443	0.044118
2011.4	-0.081852	0.043580
2012.4	-0.082256	0.043039
2013.5	-0.082654	0.042495
2014.5	-0.083047	0.041947
2015.5	-0.083434	0.041396
2016.5	-0.083816	0.040841
2017.5	-0.084192	0.040284
2018.5	-0.084562	0.039723
2019.5	-0.084927	0.039159
2020.5	-0.085286	0.038592
2021.5	-0.085640	0.038022
2022.5	-0.085988	0.037449
2023.5	-0.086331	0.036874
2024.5	-0.086667	0.036295
2025.5	-0.086999	0.035715
2026.5	-0.087324	0.035131
2027.5	-0.087644	0.034545
2028.5	-0.087959	0.033956
2029.5	-0.088268	0.033365
2030.5	-0.088571	0.032772
2031.5	-0.088869	0.032176
2032.5	-0.089161	0.031578
2033.5	-0.089447	0.030978
2034.5	-0.089728	0.030375
2035.5	-0.090004	0.029771
2036.5	-0.090274	0.029164
2037.5	-0.090538	0.028556
2038.5	-0.090797	0.027945
2039.5	-0.091050	0.027333
2040.5	-0.091298	0.026718
2041.5	-0.091541	0.026102
2042.5	-0.091778	0.025484
2043.5	-0.092009	0.024865
2044.5	-0.092235	0.024243
2045.5	-0.092456	0.023620
2046.5	-0.092671	0.022996
2047.5	-0.092880	0.022370
2048.5	-0.093084	0.021742
2049.5	-0.093283	0.021113
2050.5	-0.093477	0.020482
2051.5	-0.093665	0.019850
2052.5	-0.093847	0.019216
2053.5	-0.094024	0.018582
2054.5	-0.094196	0.017945
2055.5	-0.094362	0.017308
2056.5	-0.094523	0.016669
2057.5	-0.094679	0.016030
2058.5	-0.094829	0.015389
2059.5	-0.094974	0.014747
2060.5	-0.095113	0.014104
2061.5	-0.095247	0.013460
2062.5	-0.095376	0.012814
2063.5	-0.095499	0.012168
2064.5	-0.095617	0.011521
2065.5	-0.095730	0.010874
2066.5	-0.095837	0.010225
2067.5	-0.095939	0.009575
2068.5	-0.096036	0.008925
2069.5	-0.096127	0.008274
2070.5	-0.096212	0.007623
2071.5	-0.096293	0.006970
2072.5	-0.096368	0.006318
2073.5	-0.096437	0.005664
2074.5	-0.096501	0.005010
2075.5	-0.096560	0.004356
2076.5	-0.096614	0.003701
2077.5	-0.096662	0.003046
2078.5	-0.096704	0.002391
2079.5	-0.096742	0.001735
2080.5	-0.096774	0.001079
2081.5	-0.096800	0.000423
2082.5	-0.096821	-0.000233
2083.5	-0.096837	-0.000890
2084.5	-0.096847	-0.001546
2085.5	-0.096852	-0.002202
2086.5	-0.096851	-0.002859
2087.5	-0.096845	-0.003515
2088.5	-0.096834	-0.004171
2089.5	-0.096817	-0.004827
2090.5	-0.096795	-0.005482
2091.5	-0.096767	-0.006137
2092.5	-0.096734	-0.006792
2093.5	-0.096696	-0.007447
2094.5	-0.096652	-0.008101
2095.5	-0.096602	-0.008754
2096.5	-0.096548	-0.009407
2097.5	-0.096488	-0.010059
2098.5	-0.096422	-0.010711
2099.5	-0.096351	-0.011361
2100.5	-0.096275	-0.012011
2101.6	-0.096193	-0.012661
2102.6	-0.096106	-0.013309
2103.6	-0.096014	-0.013956
2104.6	-0.095916	-0.014602
2105.6	-0.095813	-0.015247
2106.6	-0.095705	-0.015891
2107.6	-0.095591	-0.016534
2108.6	-0.095472	-0.017176
2109.6	-0.095347	-0.017816
2110.6	-0.095217	-0.018455
2111.6	-0.095082	-0.019092
2112.6	-0.094942	-0.019728
2113.6	-0.094796	-0.020363
2114.6	-0.094645	-0.020996
2115.6	-0.094489	-0.021627
2116.6	-0.094328	-0.022256
2117.6	-0.094161	-0.022884
2118.6	-0.093990	-0.023510
2119.6	-0.093813	-0.024134
2120.6	-0.093631	-0.024756
2121.6	-0.093444	-0.025376
2122.6	-0.093251	-0.025994
2123.6	-0.093054	-0.026610
2124.6	-0.092851	-0.027224
2125.6	-0.092644	-0.027836
2126.6	-0.092431	-0.028445
2127.6	-0.092214	-0.029052
2128.6	-0.091991	-0.029657
2129.6	-0.091764	-0.030259
2130.6	-0.091532	-0.030859
2131.6	-0.091294	-0.031457
2132.6	-0.091052	-0.032051
2133.6	-0.090805	-0.032643
2134.6	-0.090554	-0.033233
2135.6	-0.090297	-0.033820
2136.6	-0.090036	-0.034403
2137.6	-0.089770	-0.034985
2138.6	-0.089499	-0.035563
2139.6	-0.089224	-0.036138
2140.6	-0.088944	-0.036711
2141.6	-0.088659	-0.037280
2142.6	-0.088370	-0.037846
2143.6	-0.088076	-0.038409
2144.6	-0.087778	-0.038969
2145.6	-0.087475	-0.039527
2146.6	-0.087168	-0.040080
2147.6	-0.086857	-0.040630
2148.6	-0.086541	-0.041177
2149.6	-0.086221	-0.041721
2150.6	-0.085897	-0.042261
2151.6	-0.085568	-0.042798
2152.6	-0.085236	-0.043332
2153.6	-0.084899	-0.043861
2154.6	-0.084558	-0.044388
2155.6	-0.084213	-0.044910
2156.6	-0.083864	-0.045430
2157.6	-0.083510	-0.045945
2158.6	-0.083153	-0.046457
2159.6	-0.082792	-0.046965
2160.6	-0.082427	-0.047469
2161.6	-0.082059	-0.047970
2162.6	-0.081686	-0.048466
2163.6	-0.081310	-0.048959
2164.6	-0.080930	-0.049448
2165.6	-0.080546	-0.049933
2166.6	-0.080159	-0.050414
2167.6	-0.079768	-0.050891
2168.6	-0.079374	-0.051364
2169.6	-0.078976	-0.051833
2170.6	-0.078575	-0.052298
2171.6	-0.078170	-0.052759
2172.6	-0.077762	-0.053216
2173.6	-0.077351	-0.053669
2174.6	-0.076936	-0.054117
2175.6	-0.076518	-0.054562
2176.6	-0.076097	-0.055002
2177.6	-0.075673	-0.055438
2178.6	-0.075246	-0.055870
2179.6	-0.074815	-0.056297
2180.6	-0.074382	-0.056721
2181.6	-0.073946	-0.057140
2182.6	-0.073506	-0.057554
2183.6	-0.073064	-0.057965
2184.6	-0.072619	-0.058371
2185.6	-0.072172	-0.058772
2186.6	-0.071721	-0.059169
2187.6	-0.071268	-0.059562
2188.6	-0.070812	-0.059951
2189.6	-0.070354	-0.060335
2190.7	-0.069893	-0.060715
2191.7	-0.069429	-0.061090
2192.7	-0.068963	-0.061460
2193.7	-0.068495	-0.061827
2194.7	-0.068024	-0.062189
2195.7	-0.067551	-0.062546
2196.7	-0.067075	-0.062899
2197.7	-0.066597	-0.063247
2198.7	-0.066117	-0.063591
2199.7	-0.065635	-0.063930
2200.7	-0.065151	-0.064265
2201.7	-0.064665	-0.064596
2202.7	-0.064176	-0.064921
2203.7	-0.063686	-0.065243
2204.7	-0.063194	-0.065559
2205.7	-0.062699	-0.065871
2206.7	-0.062203	-0.066179
2207.7	-0.061705	-0.066482
2208.7	-0.061206	-0.066781
2209.7	-0.060704	-0.067074
2210.7	-0.060201	-0.067364
2211.7	-0.059696	-0.067649
2212.7	-0.059190	-0.067929
2213.7	-0.058682	-0.068205
2214.7	-0.058173	-0.068476
2215.7	-0.057662	-0.068742
2216.7	-0.057149	-0.069004
2217.7	-0.056635	-0.069262
2218.7	-0.056120	-0.069514
2219.7	-0.055604	-0.069763
2220.7	-0.055086	-0.070006
2221.7	-0.054567	-0.070246
2222.7	-0.054047	-0.070480
2223.7	-0.053525	-0.070710
2224.7	-0.053003	-0.070936
2225.7	-0.052479	-0.071157
2226.7	-0.051955	-0.071373
2227.7	-0.051429	-0.071585
2228.7	-0.050903	-0.071792
2229.7	-0.050375	-0.071995
2230.7	-0.049847	-0.072194
2231.7	-0.049318	-0.072387
2232.7	-0.048788	-0.072577
2233.7	-0.048257	-0.072761
2234.7	-0.047725	-0.072942
2235.7	-0.047193	-0.073118
2236.7	-0.046660	-0.073289
2237.7	-0.046127	-0.073456
2238.7	-0.045593	-0.073618
2239.7	-0.045058	-0.073776
2240.7	-0.044523	-0.073930
2241.7	-0.043987	-0.074079
2242.7	-0.043451	-0.074223
2243.7	-0.042915	-0.074364
2244.7	-0.042378	-0.074499
2245.7	-0.041841	-0.074631
2246.7	-0.041304	-0.074758
2247.7	-0.040766	-0.074881
2248.7	-0.040228	-0.074999
2249.7	-0.039690	-0.075113
2250.7	-0.039152	-0.075223
2251.7	-0.038614	-0.075328
2252.7	-0.038076	-0.075429
2253.7	-0.037537	-0.075525
2254.7	-0.036999	-0.075618
2255.7	-0.036460	-0.075706
2256.7	-0.035922	-0.075790
2257.7	-0.035384	-0.075869
2258.7	-0.034846	-0.075945
2259.7	-0.034308	-0.076016
2260.7	-0.033770	-0.076083
2261.7	-0.033232	-0.076145
2262.7	-0.032695	-0.076204
2263.7	-0.032158	-0.076258
2264.7	-0.031621	-0.076308
2265.7	-0.031085	-0.076354
2266.7	-0.030549	-0.076396
2267.7	-0.030013	-0.076434
2268.7	-0.029478	-0.076467
2269.7	-0.028943	-0.076497
2270.7	-0.028409	-0.076522
2271.7	-0.027875	-0.076544
2272.7	-0.027342	-0.076561
2273.7	-0.026810	-0.076574
2274.7	-0.026278	-0.076584
2275.7	-0.025746	-0.076589
2276.7	-0.025216	-0.076591
2277.7	-0.024686	-0.076588
2278.8	-0.024157	-0.076581
2279.8	-0.023628	-0.076571
2280.8	-0.023101	-0.076557
2281.8	-0.022574	-0.076538
2282.8	-0.022048	-0.076516
2283.8	-0.021523	-0.076490
2284.8	-0.020999	-0.076460
2285.8	-0.020476	-0.076427
2286.8	-0.019953	-0.076389
2287.8	-0.019432	-0.076348
2288.8	-0.018912	-0.076303
2289.8	-0.018393	-0.076254
2290.8	-0.017874	-0.076201
2291.8	-0.017357	-0.076145
2292.8	-0.016841	-0.076085
2293.8	-0.016327	-0.076022
2294.8	-0.015813	-0.075954
2295.8	-0.015300	-0.075883
2296.8	-0.014789	-0.075809
2297.8	-0.014279	-0.075731
2298.8	-0.013770	-0.075649
2299.8	-0.013263	-0.075563
2300.8	-0.012757	-0.075475
2301.8	-0.012252	-0.075382
2302.8	-0.011749	-0.075286
2303.8	-0.011247	-0.075187
2304.8	-0.010746	-0.075084
2305.8	-0.010247	-0.074978
2306.8	-0.009749	-0.074868
2307.8	-0.009253	-0.074755
2308.8	-0.008758	-0.074638
2309.8	-0.008265	-0.074518
2310.8	-0.007773	-0.074395
2311.8	-0.007283	-0.074268
2312.8	-0.006795	-0.074138
2313.8	-0.006308	-0.074005
2314.8	-0.005823	-0.073868
2315.8	-0.005339	-0.073729
2316.8	-0.004857	-0.073586
2317.8	-0.004377	-0.073439
2318.8	-0.003899	-0.073290
2319.8	-0.003422	-0.073138
2320.8	-0.002947	-0.072982
2321.8	-0.002474	-0.072823
2322.8	-0.002003	-0.072661
2323.8	-0.001533	-0.072496
2324.8	-0.001065	-0.072328
2325.8	-0.000600	-0.072157
2326.8	-0.000136	-0.071983
2327.8	0.000326	-0.071805
2328.8	0.000786	-0.071625
2329.8	0.001244	-0.071442
2330.8	0.001700	-0.071256
2331.8	0.002154	-0.071067
2332.8	0.002606	-0.070876
2333.8	0.003056	-0.070681
2334.8	0.003504	-0.070483
2335.8	0.003950	-0.070283
2336.8	0.004394	-0.070080
2337.8	0.004836	-0.069874
2338.8	0.005275	-0.069665
2339.8	0.005713	-0.069454
2340.8	0.006148	-0.069240
2341.8	0.006581	-0.069023
2342.8	0.007012	-0.068803
2343.8	0.007441	-0.068581
2344.8	0.007867	-0.068356
2345.8	0.008291	-0.068129
2346.8	0.008713	-0.067899
2347.8	0.009133	-0.067666
2348.8	0.009550	-0.067431
2349.8	0.009965	-0.067194
2350.8	0.010377	-0.066954
2351.8	0.010788	-0.066711
2352.8	0.011196	-0.066466
2353.8	0.011601	-0.066219
2354.8	0.012004	-0.065969
2355.8	0.012405	-0.065717
2356.8	0.012803	-0.065463
2357.8	0.013198	-0.065206
2358.8	0.013592	-0.064947
2359.8	0.013982	-0.064685
2360.8	0.014370	-0.064422
2361.8	0.014756	-0.064156
2362.8	0.015139	-0.063888
2363.8	0.015520	-0.063618
2364.8	0.015897	-0.063345
2365.8	0.016273	-0.063071
2366.8	0.016645	-0.062794
2367.9	0.017015	-0.062516
2368.9	0.017383	-0.062235
2369.9	0.017747	-0.061952
2370.9	0.018109	-0.061667
2371.9	0.018469	-0.061381
2372.9	0.018825	-0.061092
2373.9	0.019179	-0.060801
2374.9	0.019530	-0.060509
2375.9	0.019878	-0.060214
2376.9	0.020224	-0.059918
2377.9	0.020566	-0.059620
2378.9	0.020906	-0.059320
