   W         E3-(K+_L)
 (MeV)      Re         Im
1614.0	-0.000396	-0.000131
1615.0	-0.000509	-0.000177
1616.0	-0.000630	-0.000230
1617.0	-0.000757	-0.000289
1618.0	-0.000890	-0.000356
1619.0	-0.001028	-0.000429
1620.0	-0.001172	-0.000510
1621.0	-0.001322	-0.000598
1622.0	-0.001476	-0.000694
1623.0	-0.001636	-0.000799
1624.0	-0.001800	-0.000912
1625.0	-0.001969	-0.001034
1626.0	-0.002142	-0.001164
1627.0	-0.002320	-0.001304
1628.0	-0.002503	-0.001453
1629.0	-0.002689	-0.001612
1630.0	-0.002880	-0.001781
1631.0	-0.003075	-0.001960
1632.0	-0.003273	-0.002150
1633.0	-0.003475	-0.002350
1634.0	-0.003681	-0.002561
1635.0	-0.003891	-0.002782
1636.0	-0.004103	-0.003015
1637.0	-0.004319	-0.003259
1638.0	-0.004538	-0.003514
1639.0	-0.004760	-0.003781
1640.0	-0.004984	-0.004058
1641.0	-0.005211	-0.004348
1642.0	-0.005441	-0.004649
1643.0	-0.005672	-0.004961
1644.0	-0.005905	-0.005284
1645.0	-0.006140	-0.005619
1646.0	-0.006375	-0.005965
1647.0	-0.006612	-0.006321
1648.0	-0.006850	-0.006689
1649.0	-0.007088	-0.007066
1650.0	-0.007326	-0.007455
1651.0	-0.007564	-0.007853
1652.0	-0.007801	-0.008261
1653.0	-0.008037	-0.008678
1654.0	-0.008272	-0.009105
1655.0	-0.008505	-0.009540
1656.0	-0.008735	-0.009983
1657.0	-0.008963	-0.010435
1658.0	-0.009188	-0.010894
1659.1	-0.009409	-0.011360
1660.1	-0.009626	-0.011833
1661.1	-0.009839	-0.012312
1662.1	-0.010047	-0.012797
1663.1	-0.010250	-0.013288
1664.1	-0.010447	-0.013784
1665.1	-0.010638	-0.014284
1666.1	-0.010823	-0.014789
1667.1	-0.011001	-0.015298
1668.1	-0.011172	-0.015810
1669.1	-0.011335	-0.016325
1670.1	-0.011491	-0.016844
1671.1	-0.011638	-0.017364
1672.1	-0.011777	-0.017887
1673.1	-0.011908	-0.018412
1674.1	-0.012030	-0.018937
1675.1	-0.012143	-0.019464
1676.1	-0.012247	-0.019992
1677.1	-0.012342	-0.020520
1678.1	-0.012427	-0.021049
1679.1	-0.012503	-0.021577
1680.1	-0.012570	-0.022105
1681.1	-0.012627	-0.022632
1682.1	-0.012674	-0.023157
1683.1	-0.012712	-0.023682
1684.1	-0.012740	-0.024205
1685.1	-0.012759	-0.024726
1686.1	-0.012769	-0.025245
1687.1	-0.012769	-0.025762
1688.1	-0.012760	-0.026276
1689.1	-0.012742	-0.026787
1690.1	-0.012715	-0.027294
1691.1	-0.012679	-0.027798
1692.1	-0.012635	-0.028299
1693.1	-0.012581	-0.028795
1694.1	-0.012520	-0.029287
1695.1	-0.012450	-0.029774
1696.1	-0.012372	-0.030257
1697.1	-0.012287	-0.030734
1698.1	-0.012194	-0.031207
1699.1	-0.012093	-0.031673
1700.1	-0.011985	-0.032134
1701.1	-0.011871	-0.032589
1702.1	-0.011749	-0.033037
1703.1	-0.011621	-0.033479
1704.1	-0.011487	-0.033914
1705.1	-0.011347	-0.034343
1706.1	-0.011201	-0.034764
1707.1	-0.011050	-0.035178
1708.1	-0.010893	-0.035584
1709.1	-0.010731	-0.035983
1710.1	-0.010565	-0.036375
1711.1	-0.010394	-0.036758
1712.1	-0.010218	-0.037133
1713.1	-0.010039	-0.037500
1714.1	-0.009855	-0.037859
1715.1	-0.009669	-0.038210
1716.1	-0.009479	-0.038552
1717.1	-0.009285	-0.038885
1718.1	-0.009089	-0.039210
1719.1	-0.008891	-0.039527
1720.1	-0.008690	-0.039835
1721.1	-0.008487	-0.040134
1722.1	-0.008282	-0.040424
1723.1	-0.008075	-0.040706
1724.1	-0.007867	-0.040979
1725.1	-0.007658	-0.041243
1726.1	-0.007448	-0.041499
1727.1	-0.007236	-0.041746
1728.1	-0.007025	-0.041984
1729.1	-0.006813	-0.042214
1730.1	-0.006600	-0.042436
1731.1	-0.006388	-0.042649
1732.1	-0.006176	-0.042853
1733.1	-0.005964	-0.043050
1734.1	-0.005753	-0.043239
1735.1	-0.005542	-0.043419
1736.1	-0.005332	-0.043592
1737.1	-0.005124	-0.043757
1738.1	-0.004916	-0.043914
1739.1	-0.004710	-0.044063
1740.1	-0.004505	-0.044206
1741.1	-0.004302	-0.044341
1742.1	-0.004101	-0.044469
1743.1	-0.003901	-0.044589
1744.1	-0.003704	-0.044703
1745.1	-0.003509	-0.044811
1746.1	-0.003315	-0.044912
1747.2	-0.003125	-0.045006
1748.2	-0.002936	-0.045094
1749.2	-0.002750	-0.045176
1750.2	-0.002567	-0.045253
1751.2	-0.002387	-0.045323
1752.2	-0.002209	-0.045388
1753.2	-0.002034	-0.045447
1754.2	-0.001862	-0.045502
1755.2	-0.001693	-0.045551
1756.2	-0.001527	-0.045595
1757.2	-0.001365	-0.045634
1758.2	-0.001205	-0.045669
1759.2	-0.001049	-0.045700
1760.2	-0.000896	-0.045726
1761.2	-0.000746	-0.045748
1762.2	-0.000600	-0.045766
1763.2	-0.000457	-0.045780
1764.2	-0.000318	-0.045791
1765.2	-0.000182	-0.045798
1766.2	-0.000050	-0.045802
1767.2	0.000079	-0.045802
1768.2	0.000205	-0.045800
1769.2	0.000326	-0.045794
1770.2	0.000444	-0.045786
1771.2	0.000559	-0.045776
1772.2	0.000670	-0.045762
1773.2	0.000777	-0.045747
1774.2	0.000881	-0.045729
1775.2	0.000981	-0.045710
1776.2	0.001078	-0.045688
1777.2	0.001171	-0.045665
1778.2	0.001260	-0.045640
1779.2	0.001346	-0.045614
1780.2	0.001428	-0.045586
1781.2	0.001507	-0.045557
1782.2	0.001582	-0.045527
1783.2	0.001653	-0.045496
1784.2	0.001722	-0.045464
1785.2	0.001786	-0.045431
1786.2	0.001847	-0.045398
1787.2	0.001905	-0.045364
1788.2	0.001959	-0.045330
1789.2	0.002010	-0.045295
1790.2	0.002057	-0.045260
1791.2	0.002101	-0.045225
1792.2	0.002142	-0.045190
1793.2	0.002180	-0.045155
1794.2	0.002214	-0.045121
1795.2	0.002245	-0.045087
1796.2	0.002273	-0.045053
1797.2	0.002297	-0.045019
1798.2	0.002319	-0.044986
1799.2	0.002337	-0.044954
1800.2	0.002352	-0.044923
1801.2	0.002365	-0.044893
1802.2	0.002374	-0.044863
1803.2	0.002381	-0.044835
1804.2	0.002384	-0.044807
1805.2	0.002385	-0.044781
1806.2	0.002383	-0.044756
1807.2	0.002378	-0.044733
1808.2	0.002370	-0.044711
1809.2	0.002359	-0.044690
1810.2	0.002346	-0.044671
1811.2	0.002331	-0.044654
1812.2	0.002312	-0.044639
1813.2	0.002291	-0.044625
1814.2	0.002268	-0.044613
1815.2	0.002242	-0.044603
1816.2	0.002214	-0.044596
1817.2	0.002183	-0.044590
1818.2	0.002150	-0.044587
1819.2	0.002115	-0.044585
1820.2	0.002078	-0.044586
1821.2	0.002038	-0.044590
1822.2	0.001996	-0.044596
1823.2	0.001952	-0.044604
1824.2	0.001906	-0.044615
1825.2	0.001858	-0.044629
1826.2	0.001807	-0.044645
1827.2	0.001755	-0.044664
1828.2	0.001701	-0.044686
1829.2	0.001645	-0.044711
1830.2	0.001587	-0.044738
1831.2	0.001527	-0.044769
1832.2	0.001466	-0.044803
1833.2	0.001403	-0.044840
1834.2	0.001338	-0.044880
1835.2	0.001271	-0.044923
1836.3	0.001203	-0.044970
1837.3	0.001133	-0.045019
1838.3	0.001062	-0.045073
1839.3	0.000989	-0.045129
1840.3	0.000915	-0.045190
1841.3	0.000839	-0.045253
1842.3	0.000762	-0.045321
1843.3	0.000683	-0.045392
1844.3	0.000604	-0.045467
1845.3	0.000522	-0.045545
1846.3	0.000440	-0.045628
1847.3	0.000356	-0.045714
1848.3	0.000272	-0.045805
1849.3	0.000186	-0.045899
1850.3	0.000098	-0.045997
1851.3	0.000010	-0.046100
1852.3	-0.000079	-0.046207
1853.3	-0.000169	-0.046317
1854.3	-0.000261	-0.046433
1855.3	-0.000353	-0.046552
1856.3	-0.000446	-0.046676
1857.3	-0.000540	-0.046804
1858.3	-0.000635	-0.046937
1859.3	-0.000731	-0.047075
1860.3	-0.000828	-0.047216
1861.3	-0.000925	-0.047363
1862.3	-0.001023	-0.047514
1863.3	-0.001122	-0.047670
1864.3	-0.001222	-0.047831
1865.3	-0.001322	-0.047997
1866.3	-0.001423	-0.048168
1867.3	-0.001524	-0.048343
1868.3	-0.001626	-0.048524
1869.3	-0.001729	-0.048710
1870.3	-0.001832	-0.048900
1871.3	-0.001935	-0.049097
1872.3	-0.002039	-0.049298
1873.3	-0.002144	-0.049504
1874.3	-0.002249	-0.049716
1875.3	-0.002354	-0.049934
1876.3	-0.002459	-0.050156
1877.3	-0.002565	-0.050385
1878.3	-0.002671	-0.050618
1879.3	-0.002777	-0.050858
1880.3	-0.002883	-0.051103
1881.3	-0.002990	-0.051354
1882.3	-0.003096	-0.051610
1883.3	-0.003203	-0.051873
1884.3	-0.003309	-0.052141
1885.3	-0.003416	-0.052415
1886.3	-0.003522	-0.052695
1887.3	-0.003629	-0.052981
1888.3	-0.003735	-0.053274
1889.3	-0.003841	-0.053572
1890.3	-0.003947	-0.053877
1891.3	-0.004052	-0.054187
1892.3	-0.004157	-0.054504
1893.3	-0.004262	-0.054828
1894.3	-0.004366	-0.055158
1895.3	-0.004469	-0.055494
1896.3	-0.004572	-0.055836
1897.3	-0.004675	-0.056185
1898.3	-0.004776	-0.056541
1899.3	-0.004877	-0.056903
1900.3	-0.004977	-0.057272
1901.3	-0.005076	-0.057648
1902.3	-0.005174	-0.058030
1903.3	-0.005271	-0.058419
1904.3	-0.005367	-0.058814
1905.3	-0.005461	-0.059217
1906.3	-0.005554	-0.059626
1907.3	-0.005646	-0.060042
1908.3	-0.005736	-0.060465
1909.3	-0.005825	-0.060895
1910.3	-0.005911	-0.061332
1911.3	-0.005996	-0.061775
1912.3	-0.006080	-0.062226
1913.3	-0.006161	-0.062683
1914.3	-0.006239	-0.063148
1915.3	-0.006316	-0.063619
1916.3	-0.006390	-0.064097
1917.3	-0.006462	-0.064583
1918.3	-0.006532	-0.065075
1919.3	-0.006598	-0.065573
1920.3	-0.006662	-0.066079
1921.3	-0.006722	-0.066592
1922.3	-0.006780	-0.067111
1923.3	-0.006834	-0.067637
1924.4	-0.006885	-0.068170
1925.4	-0.006933	-0.068709
1926.4	-0.006977	-0.069255
1927.4	-0.007017	-0.069807
1928.4	-0.007053	-0.070366
1929.4	-0.007085	-0.070932
1930.4	-0.007113	-0.071503
1931.4	-0.007136	-0.072081
1932.4	-0.007155	-0.072664
1933.4	-0.007169	-0.073254
1934.4	-0.007179	-0.073850
1935.4	-0.007184	-0.074451
1936.4	-0.007183	-0.075058
1937.4	-0.007177	-0.075670
1938.4	-0.007166	-0.076288
1939.4	-0.007149	-0.076911
1940.4	-0.007127	-0.077538
1941.4	-0.007098	-0.078171
1942.4	-0.007064	-0.078808
1943.4	-0.007023	-0.079450
1944.4	-0.006976	-0.080097
1945.4	-0.006923	-0.080746
1946.4	-0.006863	-0.081400
1947.4	-0.006797	-0.082058
1948.4	-0.006723	-0.082719
1949.4	-0.006643	-0.083383
1950.4	-0.006555	-0.084050
1951.4	-0.006460	-0.084720
1952.4	-0.006358	-0.085393
1953.4	-0.006248	-0.086067
1954.4	-0.006130	-0.086744
1955.4	-0.006005	-0.087422
1956.4	-0.005872	-0.088101
1957.4	-0.005730	-0.088782
1958.4	-0.005581	-0.089463
1959.4	-0.005423	-0.090145
1960.4	-0.005258	-0.090827
1961.4	-0.005083	-0.091509
1962.4	-0.004901	-0.092191
1963.4	-0.004709	-0.092871
1964.4	-0.004509	-0.093551
1965.4	-0.004301	-0.094229
1966.4	-0.004083	-0.094906
1967.4	-0.003857	-0.095580
1968.4	-0.003622	-0.096252
1969.4	-0.003378	-0.096921
1970.4	-0.003126	-0.097587
1971.4	-0.002864	-0.098250
1972.4	-0.002593	-0.098909
1973.4	-0.002313	-0.099564
1974.4	-0.002024	-0.100214
1975.4	-0.001726	-0.100860
1976.4	-0.001420	-0.101500
1977.4	-0.001104	-0.102135
1978.4	-0.000779	-0.102764
1979.4	-0.000446	-0.103387
1980.4	-0.000103	-0.104003
1981.4	0.000248	-0.104612
1982.4	0.000608	-0.105215
1983.4	0.000977	-0.105809
1984.4	0.001354	-0.106396
1985.4	0.001740	-0.106975
1986.4	0.002135	-0.107545
1987.4	0.002538	-0.108106
1988.4	0.002949	-0.108659
1989.4	0.003368	-0.109201
1990.4	0.003795	-0.109735
1991.4	0.004231	-0.110258
1992.4	0.004674	-0.110770
1993.4	0.005124	-0.111272
1994.4	0.005583	-0.111764
1995.4	0.006048	-0.112244
1996.4	0.006521	-0.112712
1997.4	0.007001	-0.113169
1998.4	0.007488	-0.113614
1999.4	0.007981	-0.114047
2000.4	0.008481	-0.114468
2001.4	0.008987	-0.114876
2002.4	0.009500	-0.115271
2003.4	0.010018	-0.115653
2004.4	0.010542	-0.116022
2005.4	0.011072	-0.116377
2006.4	0.011607	-0.116719
2007.4	0.012147	-0.117047
2008.4	0.012692	-0.117361
2009.4	0.013241	-0.117660
2010.4	0.013795	-0.117946
2011.4	0.014353	-0.118217
2012.4	0.014915	-0.118474
2013.5	0.015481	-0.118716
2014.5	0.016050	-0.118943
2015.5	0.016622	-0.119155
2016.5	0.017198	-0.119352
2017.5	0.017776	-0.119535
2018.5	0.018356	-0.119702
2019.5	0.018939	-0.119854
2020.5	0.019524	-0.119990
2021.5	0.020110	-0.120112
2022.5	0.020698	-0.120217
2023.5	0.021286	-0.120308
2024.5	0.021876	-0.120383
2025.5	0.022467	-0.120443
2026.5	0.023058	-0.120487
2027.5	0.023649	-0.120515
2028.5	0.024239	-0.120529
2029.5	0.024830	-0.120527
2030.5	0.025420	-0.120509
2031.5	0.026008	-0.120476
2032.5	0.026596	-0.120428
2033.5	0.027182	-0.120364
2034.5	0.027767	-0.120285
2035.5	0.028350	-0.120191
2036.5	0.028930	-0.120082
2037.5	0.029508	-0.119958
2038.5	0.030084	-0.119818
2039.5	0.030656	-0.119664
2040.5	0.031225	-0.119496
2041.5	0.031791	-0.119312
2042.5	0.032354	-0.119114
2043.5	0.032912	-0.118902
2044.5	0.033466	-0.118675
2045.5	0.034016	-0.118434
2046.5	0.034562	-0.118179
2047.5	0.035102	-0.117910
2048.5	0.035638	-0.117627
2049.5	0.036169	-0.117331
2050.5	0.036694	-0.117021
2051.5	0.037214	-0.116698
2052.5	0.037727	-0.116362
2053.5	0.038235	-0.116012
2054.5	0.038737	-0.115650
2055.5	0.039232	-0.115275
2056.5	0.039721	-0.114888
2057.5	0.040203	-0.114489
2058.5	0.040678	-0.114078
2059.5	0.041147	-0.113654
2060.5	0.041608	-0.113219
2061.5	0.042061	-0.112773
2062.5	0.042507	-0.112315
2063.5	0.042946	-0.111846
2064.5	0.043377	-0.111367
2065.5	0.043800	-0.110876
2066.5	0.044214	-0.110376
2067.5	0.044621	-0.109865
2068.5	0.045019	-0.109344
2069.5	0.045409	-0.108813
2070.5	0.045791	-0.108273
2071.5	0.046164	-0.107723
2072.5	0.046528	-0.107165
2073.5	0.046883	-0.106597
2074.5	0.047230	-0.106021
2075.5	0.047567	-0.105436
2076.5	0.047896	-0.104844
2077.5	0.048215	-0.104243
2078.5	0.048526	-0.103635
2079.5	0.048827	-0.103019
2080.5	0.049119	-0.102396
2081.5	0.049401	-0.101766
2082.5	0.049674	-0.101129
2083.5	0.049938	-0.100485
2084.5	0.050192	-0.099836
2085.5	0.050437	-0.099180
2086.5	0.050672	-0.098518
2087.5	0.050898	-0.097851
2088.5	0.051114	-0.097178
2089.5	0.051321	-0.096500
2090.5	0.051518	-0.095818
2091.5	0.051706	-0.095130
2092.5	0.051884	-0.094438
2093.5	0.052052	-0.093742
2094.5	0.052211	-0.093042
2095.5	0.052361	-0.092338
2096.5	0.052501	-0.091631
2097.5	0.052632	-0.090920
2098.5	0.052753	-0.090206
2099.5	0.052865	-0.089489
2100.5	0.052967	-0.088769
2101.6	0.053060	-0.088047
2102.6	0.053144	-0.087323
2103.6	0.053219	-0.086597
2104.6	0.053284	-0.085868
2105.6	0.053341	-0.085138
2106.6	0.053388	-0.084407
2107.6	0.053426	-0.083674
2108.6	0.053456	-0.082941
2109.6	0.053476	-0.082206
2110.6	0.053488	-0.081471
2111.6	0.053491	-0.080735
2112.6	0.053485	-0.079999
2113.6	0.053471	-0.079263
2114.6	0.053448	-0.078527
2115.6	0.053417	-0.077791
2116.6	0.053378	-0.077056
2117.6	0.053330	-0.076321
2118.6	0.053274	-0.075587
2119.6	0.053210	-0.074853
2120.6	0.053139	-0.074121
2121.6	0.053059	-0.073390
2122.6	0.052972	-0.072661
2123.6	0.052877	-0.071933
2124.6	0.052774	-0.071207
2125.6	0.052664	-0.070482
2126.6	0.052546	-0.069760
2127.6	0.052422	-0.069040
2128.6	0.052290	-0.068321
2129.6	0.052151	-0.067606
2130.6	0.052005	-0.066893
2131.6	0.051852	-0.066182
2132.6	0.051693	-0.065475
2133.6	0.051527	-0.064770
2134.6	0.051354	-0.064068
2135.6	0.051175	-0.063369
2136.6	0.050990	-0.062674
2137.6	0.050799	-0.061982
2138.6	0.050602	-0.061293
2139.6	0.050398	-0.060608
2140.6	0.050189	-0.059927
2141.6	0.049974	-0.059249
2142.6	0.049754	-0.058576
2143.6	0.049528	-0.057906
2144.6	0.049296	-0.057240
2145.6	0.049060	-0.056578
2146.6	0.048818	-0.055921
2147.6	0.048571	-0.055268
2148.6	0.048319	-0.054619
2149.6	0.048063	-0.053975
2150.6	0.047801	-0.053335
2151.6	0.047536	-0.052699
2152.6	0.047265	-0.052069
2153.6	0.046991	-0.051443
2154.6	0.046712	-0.050822
2155.6	0.046428	-0.050205
2156.6	0.046141	-0.049594
2157.6	0.045850	-0.048987
2158.6	0.045555	-0.048385
2159.6	0.045256	-0.047789
2160.6	0.044954	-0.047197
2161.6	0.044648	-0.046611
2162.6	0.044339	-0.046029
2163.6	0.044026	-0.045453
2164.6	0.043711	-0.044882
2165.6	0.043392	-0.044316
2166.6	0.043070	-0.043756
2167.6	0.042745	-0.043201
2168.6	0.042417	-0.042651
2169.6	0.042087	-0.042107
2170.6	0.041754	-0.041568
2171.6	0.041419	-0.041034
2172.6	0.041081	-0.040506
2173.6	0.040740	-0.039984
2174.6	0.040398	-0.039467
2175.6	0.040053	-0.038955
2176.6	0.039707	-0.038449
2177.6	0.039358	-0.037948
2178.6	0.039007	-0.037453
2179.6	0.038655	-0.036963
2180.6	0.038301	-0.036479
2181.6	0.037945	-0.036001
2182.6	0.037588	-0.035528
2183.6	0.037229	-0.035060
2184.6	0.036869	-0.034598
2185.6	0.036507	-0.034142
2186.6	0.036145	-0.033691
2187.6	0.035781	-0.033246
2188.6	0.035416	-0.032806
2189.6	0.035050	-0.032372
2190.7	0.034683	-0.031943
2191.7	0.034315	-0.031520
2192.7	0.033946	-0.031102
2193.7	0.033577	-0.030690
2194.7	0.033207	-0.030283
2195.7	0.032837	-0.029882
2196.7	0.032466	-0.029486
2197.7	0.032094	-0.029096
2198.7	0.031722	-0.028711
2199.7	0.031350	-0.028332
2200.7	0.030978	-0.027957
2201.7	0.030605	-0.027589
2202.7	0.030232	-0.027225
2203.7	0.029859	-0.026867
2204.7	0.029486	-0.026515
2205.7	0.029113	-0.026167
2206.7	0.028740	-0.025825
2207.7	0.028368	-0.025489
2208.7	0.027995	-0.025157
2209.7	0.027623	-0.024831
2210.7	0.027251	-0.024510
2211.7	0.026880	-0.024194
2212.7	0.026509	-0.023883
2213.7	0.026138	-0.023577
2214.7	0.025768	-0.023277
2215.7	0.025398	-0.022981
2216.7	0.025029	-0.022691
2217.7	0.024660	-0.022405
2218.7	0.024293	-0.022125
2219.7	0.023926	-0.021849
2220.7	0.023560	-0.021578
2221.7	0.023194	-0.021313
2222.7	0.022830	-0.021052
2223.7	0.022466	-0.020796
2224.7	0.022103	-0.020545
2225.7	0.021741	-0.020299
2226.7	0.021381	-0.020057
2227.7	0.021021	-0.019820
2228.7	0.020662	-0.019588
2229.7	0.020305	-0.019361
2230.7	0.019948	-0.019138
2231.7	0.019593	-0.018920
2232.7	0.019239	-0.018706
2233.7	0.018887	-0.018497
2234.7	0.018535	-0.018292
2235.7	0.018185	-0.018092
2236.7	0.017837	-0.017897
2237.7	0.017489	-0.017705
2238.7	0.017143	-0.017519
2239.7	0.016799	-0.017336
2240.7	0.016456	-0.017158
2241.7	0.016114	-0.016984
2242.7	0.015774	-0.016815
2243.7	0.015436	-0.016649
2244.7	0.015099	-0.016488
2245.7	0.014764	-0.016331
2246.7	0.014430	-0.016178
2247.7	0.014098	-0.016030
2248.7	0.013768	-0.015885
2249.7	0.013439	-0.015744
2250.7	0.013112	-0.015608
2251.7	0.012787	-0.015475
2252.7	0.012463	-0.015347
2253.7	0.012142	-0.015222
2254.7	0.011822	-0.015101
2255.7	0.011504	-0.014984
2256.7	0.011188	-0.014871
2257.7	0.010874	-0.014761
2258.7	0.010561	-0.014656
2259.7	0.010251	-0.014554
2260.7	0.009942	-0.014455
2261.7	0.009635	-0.014361
2262.7	0.009331	-0.014270
2263.7	0.009028	-0.014183
2264.7	0.008727	-0.014099
2265.7	0.008428	-0.014019
2266.7	0.008132	-0.013942
2267.7	0.007837	-0.013868
2268.7	0.007544	-0.013799
2269.7	0.007254	-0.013732
2270.7	0.006965	-0.013669
2271.7	0.006679	-0.013609
2272.7	0.006395	-0.013553
2273.7	0.006113	-0.013500
2274.7	0.005833	-0.013450
2275.7	0.005555	-0.013403
2276.7	0.005279	-0.013360
2277.7	0.005006	-0.013320
2278.8	0.004734	-0.013283
2279.8	0.004465	-0.013249
2280.8	0.004198	-0.013218
2281.8	0.003934	-0.013190
2282.8	0.003671	-0.013165
2283.8	0.003411	-0.013143
2284.8	0.003153	-0.013124
2285.8	0.002897	-0.013108
2286.8	0.002644	-0.013095
2287.8	0.002393	-0.013085
2288.8	0.002144	-0.013077
2289.8	0.001897	-0.013073
2290.8	0.001653	-0.013071
2291.8	0.001411	-0.013072
2292.8	0.001172	-0.013076
2293.8	0.000934	-0.013082
2294.8	0.000700	-0.013091
2295.8	0.000467	-0.013103
2296.8	0.000237	-0.013117
2297.8	0.000009	-0.013134
2298.8	-0.000216	-0.013154
2299.8	-0.000439	-0.013176
2300.8	-0.000660	-0.013200
2301.8	-0.000878	-0.013227
2302.8	-0.001094	-0.013257
2303.8	-0.001307	-0.013289
2304.8	-0.001518	-0.013323
2305.8	-0.001726	-0.013360
2306.8	-0.001932	-0.013399
2307.8	-0.002136	-0.013440
2308.8	-0.002337	-0.013484
2309.8	-0.002536	-0.013530
2310.8	-0.002732	-0.013578
2311.8	-0.002925	-0.013628
2312.8	-0.003117	-0.013681
2313.8	-0.003305	-0.013736
2314.8	-0.003491	-0.013792
2315.8	-0.003675	-0.013851
2316.8	-0.003856	-0.013912
2317.8	-0.004035	-0.013976
2318.8	-0.004211	-0.014041
2319.8	-0.004385	-0.014108
2320.8	-0.004556	-0.014177
2321.8	-0.004724	-0.014248
2322.8	-0.004890	-0.014321
2323.8	-0.005054	-0.014396
2324.8	-0.005215	-0.014473
2325.8	-0.005373	-0.014552
2326.8	-0.005529	-0.014632
2327.8	-0.005682	-0.014715
2328.8	-0.005833	-0.014799
2329.8	-0.005981	-0.014885
2330.8	-0.006126	-0.014972
2331.8	-0.006269	-0.015062
2332.8	-0.006409	-0.015153
2333.8	-0.006547	-0.015246
2334.8	-0.006682	-0.015340
2335.8	-0.006814	-0.015436
2336.8	-0.006944	-0.015534
2337.8	-0.007071	-0.015633
2338.8	-0.007196	-0.015734
2339.8	-0.007318	-0.015836
2340.8	-0.007437	-0.015940
2341.8	-0.007554	-0.016045
2342.8	-0.007668	-0.016152
2343.8	-0.007779	-0.016260
2344.8	-0.007888	-0.016369
2345.8	-0.007994	-0.016480
2346.8	-0.008097	-0.016593
2347.8	-0.008198	-0.016706
2348.8	-0.008296	-0.016821
2349.8	-0.008391	-0.016938
2350.8	-0.008484	-0.017055
2351.8	-0.008574	-0.017174
2352.8	-0.008661	-0.017294
2353.8	-0.008746	-0.017416
2354.8	-0.008827	-0.017538
2355.8	-0.008906	-0.017662
2356.8	-0.008983	-0.017787
2357.8	-0.009057	-0.017912
2358.8	-0.009127	-0.018039
2359.8	-0.009196	-0.018168
2360.8	-0.009261	-0.018297
2361.8	-0.009324	-0.018427
2362.8	-0.009384	-0.018558
2363.8	-0.009441	-0.018690
2364.8	-0.009495	-0.018823
2365.8	-0.009547	-0.018958
2366.8	-0.009596	-0.019093
