   W         M1+(K+_L)
 (MeV)      Re         Im
1614.0	0.010829	-0.004896
1615.0	0.010885	-0.005794
1616.0	0.010843	-0.006734
1617.0	0.010728	-0.007715
1618.0	0.010556	-0.008739
1619.0	0.010341	-0.009806
1620.0	0.010092	-0.010915
1621.0	0.009817	-0.012068
1622.0	0.009523	-0.013263
1623.0	0.009215	-0.014500
1624.0	0.008898	-0.015781
1625.0	0.008576	-0.017104
1626.0	0.008253	-0.018470
1627.0	0.007931	-0.019879
1628.0	0.007615	-0.021331
1629.0	0.007307	-0.022826
1630.0	0.007009	-0.024363
1631.0	0.006725	-0.025943
1632.0	0.006455	-0.027566
1633.0	0.006204	-0.029231
1634.0	0.005971	-0.030939
1635.0	0.005760	-0.032689
1636.0	0.005572	-0.034482
1637.0	0.005408	-0.036317
1638.0	0.005269	-0.038194
1639.0	0.005157	-0.040112
1640.0	0.005073	-0.042073
1641.0	0.005018	-0.044075
1642.0	0.004992	-0.046118
1643.0	0.004996	-0.048202
1644.0	0.005030	-0.050327
1645.0	0.005095	-0.052492
1646.0	0.005191	-0.054697
1647.0	0.005316	-0.056941
1648.0	0.005473	-0.059225
1649.0	0.005659	-0.061547
1650.0	0.005875	-0.063907
1651.0	0.006120	-0.066304
1652.0	0.006393	-0.068738
1653.0	0.006694	-0.071207
1654.0	0.007021	-0.073712
1655.0	0.007375	-0.076252
1656.0	0.007753	-0.078825
1657.0	0.008156	-0.081431
1658.0	0.008582	-0.084068
1659.1	0.009029	-0.086737
1660.1	0.009498	-0.089435
1661.1	0.009987	-0.092162
1662.1	0.010495	-0.094917
1663.1	0.011022	-0.097698
1664.1	0.011566	-0.100505
1665.1	0.012126	-0.103335
1666.1	0.012703	-0.106189
1667.1	0.013294	-0.109064
1668.1	0.013901	-0.111960
1669.1	0.014521	-0.114875
1670.1	0.015156	-0.117808
1671.1	0.015803	-0.120757
1672.1	0.016464	-0.123720
1673.1	0.017138	-0.126698
1674.1	0.017824	-0.129687
1675.1	0.018523	-0.132688
1676.1	0.019235	-0.135697
1677.1	0.019960	-0.138714
1678.1	0.020698	-0.141738
1679.1	0.021448	-0.144765
1680.1	0.022213	-0.147796
1681.1	0.022991	-0.150829
1682.1	0.023782	-0.153862
1683.1	0.024589	-0.156892
1684.1	0.025410	-0.159920
1685.1	0.026247	-0.162943
1686.1	0.027099	-0.165959
1687.1	0.027967	-0.168967
1688.1	0.028852	-0.171965
1689.1	0.029755	-0.174952
1690.1	0.030675	-0.177926
1691.1	0.031613	-0.180885
1692.1	0.032569	-0.183828
1693.1	0.033545	-0.186752
1694.1	0.034540	-0.189657
1695.1	0.035555	-0.192540
1696.1	0.036591	-0.195400
1697.1	0.037647	-0.198236
1698.1	0.038724	-0.201045
1699.1	0.039822	-0.203827
1700.1	0.040942	-0.206579
1701.1	0.042083	-0.209299
1702.1	0.043247	-0.211988
1703.1	0.044433	-0.214642
1704.1	0.045641	-0.217260
1705.1	0.046871	-0.219841
1706.1	0.048124	-0.222384
1707.1	0.049399	-0.224887
1708.1	0.050696	-0.227348
1709.1	0.052016	-0.229767
1710.1	0.053357	-0.232142
1711.1	0.054720	-0.234472
1712.1	0.056105	-0.236756
1713.1	0.057510	-0.238992
1714.1	0.058937	-0.241179
1715.1	0.060384	-0.243317
1716.1	0.061852	-0.245404
1717.1	0.063339	-0.247439
1718.1	0.064845	-0.249423
1719.1	0.066370	-0.251352
1720.1	0.067913	-0.253228
1721.1	0.069473	-0.255049
1722.1	0.071050	-0.256815
1723.1	0.072643	-0.258524
1724.1	0.074251	-0.260177
1725.1	0.075875	-0.261772
1726.1	0.077512	-0.263311
1727.1	0.079162	-0.264791
1728.1	0.080825	-0.266213
1729.1	0.082499	-0.267576
1730.1	0.084183	-0.268881
1731.1	0.085878	-0.270127
1732.1	0.087581	-0.271314
1733.1	0.089292	-0.272442
1734.1	0.091011	-0.273511
1735.1	0.092735	-0.274522
1736.1	0.094465	-0.275473
1737.1	0.096199	-0.276366
1738.1	0.097937	-0.277200
1739.1	0.099676	-0.277976
1740.1	0.101418	-0.278695
1741.1	0.103160	-0.279356
1742.1	0.104901	-0.279960
1743.1	0.106641	-0.280507
1744.1	0.108379	-0.280998
1745.1	0.110113	-0.281433
1746.1	0.111844	-0.281814
1747.2	0.113569	-0.282140
1748.2	0.115288	-0.282412
1749.2	0.117000	-0.282630
1750.2	0.118705	-0.282797
1751.2	0.120401	-0.282911
1752.2	0.122087	-0.282975
1753.2	0.123763	-0.282988
1754.2	0.125428	-0.282952
1755.2	0.127081	-0.282867
1756.2	0.128721	-0.282734
1757.2	0.130347	-0.282555
1758.2	0.131960	-0.282329
1759.2	0.133557	-0.282058
1760.2	0.135138	-0.281744
1761.2	0.136703	-0.281385
1762.2	0.138250	-0.280985
1763.2	0.139780	-0.280543
1764.2	0.141291	-0.280061
1765.2	0.142784	-0.279540
1766.2	0.144256	-0.278980
1767.2	0.145708	-0.278383
1768.2	0.147140	-0.277750
1769.2	0.148550	-0.277081
1770.2	0.149938	-0.276378
1771.2	0.151304	-0.275641
1772.2	0.152647	-0.274873
1773.2	0.153967	-0.274073
1774.2	0.155263	-0.273243
1775.2	0.156535	-0.272384
1776.2	0.157783	-0.271497
1777.2	0.159006	-0.270583
1778.2	0.160204	-0.269643
1779.2	0.161376	-0.268678
1780.2	0.162523	-0.267689
1781.2	0.163644	-0.266677
1782.2	0.164739	-0.265643
1783.2	0.165807	-0.264588
1784.2	0.166849	-0.263514
1785.2	0.167863	-0.262420
1786.2	0.168851	-0.261309
1787.2	0.169812	-0.260180
1788.2	0.170746	-0.259036
1789.2	0.171652	-0.257876
1790.2	0.172531	-0.256703
1791.2	0.173382	-0.255516
1792.2	0.174206	-0.254318
1793.2	0.175002	-0.253108
1794.2	0.175771	-0.251888
1795.2	0.176512	-0.250658
1796.2	0.177225	-0.249420
1797.2	0.177911	-0.248174
1798.2	0.178570	-0.246922
1799.2	0.179201	-0.245663
1800.2	0.179805	-0.244400
1801.2	0.180381	-0.243133
1802.2	0.180931	-0.241862
1803.2	0.181453	-0.240589
1804.2	0.181949	-0.239313
1805.2	0.182418	-0.238037
1806.2	0.182860	-0.236761
1807.2	0.183276	-0.235486
1808.2	0.183666	-0.234211
1809.2	0.184030	-0.232939
1810.2	0.184368	-0.231670
1811.2	0.184680	-0.230404
1812.2	0.184967	-0.229142
1813.2	0.185229	-0.227886
1814.2	0.185466	-0.226634
1815.2	0.185678	-0.225390
1816.2	0.185866	-0.224152
1817.2	0.186029	-0.222921
1818.2	0.186169	-0.221699
1819.2	0.186286	-0.220485
1820.2	0.186379	-0.219281
1821.2	0.186449	-0.218087
1822.2	0.186497	-0.216903
1823.2	0.186522	-0.215730
1824.2	0.186525	-0.214569
1825.2	0.186507	-0.213420
1826.2	0.186467	-0.212284
1827.2	0.186406	-0.211161
1828.2	0.186325	-0.210052
1829.2	0.186223	-0.208956
1830.2	0.186101	-0.207876
1831.2	0.185960	-0.206810
1832.2	0.185799	-0.205760
1833.2	0.185620	-0.204726
1834.2	0.185422	-0.203708
1835.2	0.185206	-0.202707
1836.3	0.184972	-0.201723
1837.3	0.184721	-0.200757
1838.3	0.184452	-0.199808
1839.3	0.184167	-0.198878
1840.3	0.183866	-0.197966
1841.3	0.183549	-0.197073
1842.3	0.183217	-0.196200
1843.3	0.182870	-0.195346
1844.3	0.182508	-0.194512
1845.3	0.182131	-0.193698
1846.3	0.181741	-0.192905
1847.3	0.181338	-0.192132
1848.3	0.180921	-0.191380
1849.3	0.180492	-0.190650
1850.3	0.180051	-0.189940
1851.3	0.179598	-0.189253
1852.3	0.179134	-0.188587
1853.3	0.178658	-0.187943
1854.3	0.178172	-0.187321
1855.3	0.177677	-0.186722
1856.3	0.177171	-0.186144
1857.3	0.176656	-0.185590
1858.3	0.176132	-0.185058
1859.3	0.175600	-0.184550
1860.3	0.175060	-0.184064
1861.3	0.174513	-0.183601
1862.3	0.173958	-0.183161
1863.3	0.173397	-0.182744
1864.3	0.172829	-0.182351
1865.3	0.172256	-0.181981
1866.3	0.171677	-0.181634
1867.3	0.171093	-0.181311
1868.3	0.170505	-0.181010
1869.3	0.169912	-0.180733
1870.3	0.169316	-0.180480
1871.3	0.168716	-0.180249
1872.3	0.168114	-0.180042
1873.3	0.167509	-0.179858
1874.3	0.166902	-0.179697
1875.3	0.166294	-0.179559
1876.3	0.165684	-0.179443
1877.3	0.165074	-0.179351
1878.3	0.164463	-0.179281
1879.3	0.163853	-0.179233
1880.3	0.163243	-0.179208
1881.3	0.162634	-0.179205
1882.3	0.162026	-0.179224
1883.3	0.161420	-0.179265
1884.3	0.160816	-0.179327
1885.3	0.160215	-0.179411
1886.3	0.159617	-0.179516
1887.3	0.159022	-0.179642
1888.3	0.158431	-0.179788
1889.3	0.157844	-0.179955
1890.3	0.157261	-0.180142
1891.3	0.156683	-0.180349
1892.3	0.156111	-0.180576
1893.3	0.155544	-0.180822
1894.3	0.154983	-0.181087
1895.3	0.154429	-0.181370
1896.3	0.153881	-0.181672
1897.3	0.153341	-0.181992
1898.3	0.152808	-0.182330
1899.3	0.152283	-0.182685
1900.3	0.151765	-0.183056
1901.3	0.151256	-0.183444
1902.3	0.150756	-0.183849
1903.3	0.150265	-0.184269
1904.3	0.149784	-0.184704
1905.3	0.149312	-0.185154
1906.3	0.148850	-0.185619
1907.3	0.148398	-0.186098
1908.3	0.147957	-0.186591
1909.3	0.147526	-0.187096
1910.3	0.147107	-0.187615
1911.3	0.146699	-0.188145
1912.3	0.146302	-0.188688
1913.3	0.145917	-0.189242
1914.3	0.145544	-0.189807
1915.3	0.145184	-0.190382
1916.3	0.144835	-0.190967
1917.3	0.144500	-0.191562
1918.3	0.144177	-0.192166
1919.3	0.143867	-0.192778
1920.3	0.143570	-0.193398
1921.3	0.143287	-0.194025
1922.3	0.143016	-0.194660
1923.3	0.142760	-0.195301
1924.4	0.142517	-0.195948
1925.4	0.142288	-0.196600
1926.4	0.142073	-0.197258
1927.4	0.141872	-0.197919
1928.4	0.141685	-0.198585
1929.4	0.141512	-0.199254
1930.4	0.141353	-0.199927
1931.4	0.141209	-0.200601
1932.4	0.141079	-0.201278
1933.4	0.140964	-0.201956
1934.4	0.140862	-0.202634
1935.4	0.140775	-0.203313
1936.4	0.140703	-0.203992
1937.4	0.140645	-0.204671
1938.4	0.140601	-0.205348
1939.4	0.140572	-0.206024
1940.4	0.140557	-0.206698
1941.4	0.140556	-0.207369
1942.4	0.140570	-0.208037
1943.4	0.140598	-0.208701
1944.4	0.140640	-0.209363
1945.4	0.140695	-0.210018
1946.4	0.140765	-0.210669
1947.4	0.140848	-0.211315
1948.4	0.140945	-0.211955
1949.4	0.141056	-0.212589
1950.4	0.141180	-0.213216
1951.4	0.141317	-0.213836
1952.4	0.141467	-0.214449
1953.4	0.141631	-0.215054
1954.4	0.141807	-0.215651
1955.4	0.141996	-0.216239
1956.4	0.142197	-0.216818
1957.4	0.142411	-0.217388
1958.4	0.142637	-0.217948
1959.4	0.142875	-0.218498
1960.4	0.143124	-0.219038
1961.4	0.143386	-0.219568
1962.4	0.143658	-0.220086
1963.4	0.143941	-0.220593
1964.4	0.144236	-0.221089
1965.4	0.144541	-0.221574
1966.4	0.144857	-0.222046
1967.4	0.145182	-0.222507
1968.4	0.145518	-0.222955
1969.4	0.145864	-0.223391
1970.4	0.146219	-0.223814
1971.4	0.146583	-0.224225
1972.4	0.146956	-0.224622
1973.4	0.147339	-0.225007
1974.4	0.147729	-0.225378
1975.4	0.148128	-0.225736
1976.4	0.148536	-0.226081
1977.4	0.148951	-0.226413
1978.4	0.149373	-0.226731
1979.4	0.149803	-0.227036
1980.4	0.150241	-0.227328
1981.4	0.150685	-0.227606
1982.4	0.151136	-0.227871
1983.4	0.151593	-0.228122
1984.4	0.152056	-0.228360
1985.4	0.152526	-0.228585
1986.4	0.153001	-0.228797
1987.4	0.153482	-0.228996
1988.4	0.153968	-0.229182
1989.4	0.154460	-0.229356
1990.4	0.154956	-0.229516
1991.4	0.155457	-0.229664
1992.4	0.155963	-0.229800
1993.4	0.156473	-0.229923
1994.4	0.156987	-0.230035
1995.4	0.157506	-0.230135
1996.4	0.158028	-0.230223
1997.4	0.158554	-0.230299
1998.4	0.159083	-0.230365
1999.4	0.159616	-0.230419
2000.4	0.160152	-0.230463
2001.4	0.160691	-0.230496
2002.4	0.161234	-0.230519
2003.4	0.161779	-0.230532
2004.4	0.162326	-0.230536
2005.4	0.162877	-0.230529
2006.4	0.163430	-0.230514
2007.4	0.163985	-0.230489
2008.4	0.164542	-0.230456
2009.4	0.165102	-0.230414
2010.4	0.165664	-0.230365
2011.4	0.166228	-0.230307
2012.4	0.166794	-0.230241
2013.5	0.167362	-0.230169
2014.5	0.167931	-0.230089
2015.5	0.168503	-0.230002
2016.5	0.169076	-0.229909
2017.5	0.169651	-0.229810
2018.5	0.170227	-0.229705
2019.5	0.170805	-0.229593
2020.5	0.171385	-0.229477
2021.5	0.171966	-0.229355
2022.5	0.172548	-0.229228
2023.5	0.173132	-0.229096
2024.5	0.173718	-0.228960
2025.5	0.174305	-0.228820
2026.5	0.174893	-0.228675
2027.5	0.175483	-0.228527
2028.5	0.176074	-0.228376
2029.5	0.176667	-0.228220
2030.5	0.177261	-0.228062
2031.5	0.177856	-0.227901
2032.5	0.178453	-0.227737
2033.5	0.179051	-0.227570
2034.5	0.179651	-0.227401
2035.5	0.180252	-0.227230
2036.5	0.180854	-0.227057
2037.5	0.181458	-0.226881
2038.5	0.182063	-0.226704
2039.5	0.182670	-0.226526
2040.5	0.183278	-0.226346
2041.5	0.183888	-0.226164
2042.5	0.184499	-0.225982
2043.5	0.185111	-0.225798
2044.5	0.185725	-0.225613
2045.5	0.186341	-0.225428
2046.5	0.186958	-0.225241
2047.5	0.187576	-0.225054
2048.5	0.188196	-0.224866
2049.5	0.188818	-0.224677
2050.5	0.189441	-0.224488
2051.5	0.190065	-0.224299
2052.5	0.190691	-0.224109
2053.5	0.191319	-0.223919
2054.5	0.191947	-0.223728
2055.5	0.192578	-0.223537
2056.5	0.193210	-0.223345
2057.5	0.193843	-0.223154
2058.5	0.194478	-0.222962
2059.5	0.195114	-0.222769
2060.5	0.195752	-0.222577
2061.5	0.196391	-0.222384
2062.5	0.197031	-0.222190
2063.5	0.197673	-0.221997
2064.5	0.198316	-0.221803
2065.5	0.198960	-0.221608
2066.5	0.199605	-0.221413
2067.5	0.200252	-0.221218
2068.5	0.200900	-0.221022
2069.5	0.201549	-0.220825
2070.5	0.202199	-0.220628
2071.5	0.202850	-0.220430
2072.5	0.203502	-0.220231
2073.5	0.204155	-0.220031
2074.5	0.204809	-0.219831
2075.5	0.205464	-0.219629
2076.5	0.206119	-0.219426
2077.5	0.206775	-0.219222
2078.5	0.207432	-0.219017
2079.5	0.208089	-0.218811
2080.5	0.208747	-0.218603
2081.5	0.209406	-0.218394
2082.5	0.210064	-0.218183
2083.5	0.210723	-0.217970
2084.5	0.211382	-0.217756
2085.5	0.212041	-0.217540
2086.5	0.212701	-0.217322
2087.5	0.213360	-0.217102
2088.5	0.214019	-0.216880
2089.5	0.214677	-0.216655
2090.5	0.215336	-0.216428
2091.5	0.215994	-0.216199
2092.5	0.216651	-0.215967
2093.5	0.217308	-0.215733
2094.5	0.217964	-0.215496
2095.5	0.218620	-0.215256
2096.5	0.219274	-0.215013
2097.5	0.219928	-0.214767
2098.5	0.220580	-0.214518
2099.5	0.221231	-0.214266
2100.5	0.221881	-0.214011
2101.6	0.222530	-0.213752
2102.6	0.223176	-0.213490
2103.6	0.223822	-0.213225
2104.6	0.224465	-0.212956
2105.6	0.225107	-0.212683
2106.6	0.225747	-0.212406
2107.6	0.226384	-0.212126
2108.6	0.227020	-0.211841
2109.6	0.227653	-0.211553
2110.6	0.228284	-0.211261
2111.6	0.228912	-0.210964
2112.6	0.229538	-0.210664
2113.6	0.230161	-0.210359
2114.6	0.230781	-0.210050
2115.6	0.231398	-0.209736
2116.6	0.232012	-0.209418
2117.6	0.232623	-0.209096
2118.6	0.233231	-0.208769
2119.6	0.233836	-0.208438
2120.6	0.234437	-0.208102
2121.6	0.235034	-0.207761
2122.6	0.235628	-0.207416
2123.6	0.236218	-0.207065
2124.6	0.236804	-0.206711
2125.6	0.237386	-0.206351
2126.6	0.237965	-0.205987
2127.6	0.238538	-0.205618
2128.6	0.239108	-0.205244
2129.6	0.239673	-0.204865
2130.6	0.240234	-0.204481
2131.6	0.240791	-0.204092
2132.6	0.241342	-0.203699
2133.6	0.241889	-0.203301
2134.6	0.242432	-0.202897
2135.6	0.242969	-0.202489
2136.6	0.243501	-0.202076
2137.6	0.244028	-0.201658
2138.6	0.244550	-0.201235
2139.6	0.245067	-0.200808
2140.6	0.245579	-0.200375
2141.6	0.246085	-0.199938
2142.6	0.246586	-0.199496
2143.6	0.247081	-0.199049
2144.6	0.247570	-0.198597
2145.6	0.248054	-0.198140
2146.6	0.248532	-0.197680
2147.6	0.249005	-0.197214
2148.6	0.249471	-0.196743
2149.6	0.249932	-0.196268
2150.6	0.250386	-0.195789
2151.6	0.250835	-0.195305
2152.6	0.251277	-0.194816
2153.6	0.251714	-0.194323
2154.6	0.252144	-0.193826
2155.6	0.252567	-0.193324
2156.6	0.252985	-0.192818
2157.6	0.253396	-0.192308
2158.6	0.253801	-0.191793
2159.6	0.254199	-0.191275
2160.6	0.254591	-0.190752
2161.6	0.254976	-0.190226
2162.6	0.255355	-0.189695
2163.6	0.255727	-0.189161
2164.6	0.256092	-0.188623
2165.6	0.256451	-0.188081
2166.6	0.256803	-0.187535
2167.6	0.257149	-0.186986
2168.6	0.257487	-0.186433
2169.6	0.257819	-0.185877
2170.6	0.258145	-0.185317
2171.6	0.258463	-0.184754
2172.6	0.258774	-0.184188
2173.6	0.259079	-0.183618
2174.6	0.259377	-0.183046
2175.6	0.259668	-0.182470
2176.6	0.259952	-0.181891
2177.6	0.260229	-0.181310
2178.6	0.260499	-0.180726
2179.6	0.260763	-0.180139
2180.6	0.261019	-0.179549
2181.6	0.261269	-0.178957
2182.6	0.261511	-0.178363
2183.6	0.261747	-0.177766
2184.6	0.261976	-0.177166
2185.6	0.262198	-0.176565
2186.6	0.262413	-0.175961
2187.6	0.262621	-0.175356
2188.6	0.262822	-0.174748
2189.6	0.263016	-0.174138
2190.7	0.263204	-0.173527
2191.7	0.263384	-0.172914
2192.7	0.263558	-0.172299
2193.7	0.263725	-0.171683
2194.7	0.263885	-0.171065
2195.7	0.264038	-0.170445
2196.7	0.264185	-0.169825
2197.7	0.264324	-0.169203
2198.7	0.264457	-0.168580
2199.7	0.264583	-0.167956
2200.7	0.264703	-0.167331
2201.7	0.264815	-0.166705
2202.7	0.264922	-0.166079
2203.7	0.265021	-0.165451
2204.7	0.265114	-0.164823
2205.7	0.265200	-0.164194
2206.7	0.265280	-0.163565
2207.7	0.265353	-0.162936
2208.7	0.265419	-0.162306
2209.7	0.265480	-0.161676
2210.7	0.265533	-0.161046
2211.7	0.265581	-0.160415
2212.7	0.265622	-0.159785
2213.7	0.265656	-0.159155
2214.7	0.265684	-0.158524
2215.7	0.265706	-0.157895
2216.7	0.265722	-0.157265
2217.7	0.265732	-0.156636
2218.7	0.265735	-0.156007
2219.7	0.265733	-0.155379
2220.7	0.265724	-0.154751
2221.7	0.265709	-0.154124
2222.7	0.265688	-0.153498
2223.7	0.265661	-0.152873
2224.7	0.265629	-0.152248
2225.7	0.265590	-0.151625
2226.7	0.265546	-0.151003
2227.7	0.265495	-0.150382
2228.7	0.265439	-0.149762
2229.7	0.265378	-0.149143
2230.7	0.265310	-0.148525
2231.7	0.265237	-0.147909
2232.7	0.265159	-0.147295
2233.7	0.265075	-0.146682
2234.7	0.264985	-0.146071
2235.7	0.264890	-0.145461
2236.7	0.264790	-0.144853
2237.7	0.264684	-0.144247
2238.7	0.264573	-0.143643
2239.7	0.264457	-0.143040
2240.7	0.264336	-0.142440
2241.7	0.264209	-0.141842
2242.7	0.264078	-0.141246
2243.7	0.263941	-0.140652
2244.7	0.263800	-0.140060
2245.7	0.263653	-0.139471
2246.7	0.263502	-0.138884
2247.7	0.263345	-0.138299
2248.7	0.263184	-0.137717
2249.7	0.263019	-0.137138
2250.7	0.262848	-0.136561
2251.7	0.262673	-0.135987
2252.7	0.262494	-0.135415
2253.7	0.262310	-0.134847
2254.7	0.262121	-0.134281
2255.7	0.261928	-0.133718
2256.7	0.261731	-0.133158
2257.7	0.261529	-0.132601
2258.7	0.261323	-0.132047
2259.7	0.261113	-0.131496
2260.7	0.260899	-0.130948
2261.7	0.260681	-0.130403
2262.7	0.260458	-0.129862
2263.7	0.260232	-0.129324
2264.7	0.260002	-0.128789
2265.7	0.259768	-0.128258
2266.7	0.259530	-0.127730
2267.7	0.259289	-0.127205
2268.7	0.259043	-0.126684
2269.7	0.258794	-0.126167
2270.7	0.258542	-0.125653
2271.7	0.258286	-0.125143
2272.7	0.258026	-0.124637
2273.7	0.257764	-0.124134
2274.7	0.257497	-0.123635
2275.7	0.257228	-0.123140
2276.7	0.256955	-0.122649
2277.7	0.256679	-0.122162
2278.8	0.256400	-0.121679
2279.8	0.256118	-0.121200
2280.8	0.255833	-0.120724
2281.8	0.255545	-0.120253
2282.8	0.255254	-0.119786
2283.8	0.254960	-0.119323
2284.8	0.254664	-0.118864
2285.8	0.254365	-0.118410
2286.8	0.254063	-0.117960
2287.8	0.253758	-0.117514
2288.8	0.253451	-0.117072
2289.8	0.253142	-0.116635
2290.8	0.252830	-0.116202
2291.8	0.252516	-0.115773
2292.8	0.252199	-0.115349
2293.8	0.251881	-0.114929
2294.8	0.251560	-0.114514
2295.8	0.251237	-0.114104
2296.8	0.250912	-0.113698
2297.8	0.250584	-0.113297
2298.8	0.250255	-0.112900
2299.8	0.249924	-0.112508
2300.8	0.249592	-0.112120
2301.8	0.249257	-0.111738
2302.8	0.248921	-0.111360
2303.8	0.248583	-0.110987
2304.8	0.248244	-0.110618
2305.8	0.247903	-0.110255
2306.8	0.247561	-0.109896
2307.8	0.247217	-0.109543
2308.8	0.246872	-0.109194
2309.8	0.246525	-0.108850
2310.8	0.246178	-0.108511
2311.8	0.245829	-0.108177
2312.8	0.245479	-0.107848
2313.8	0.245129	-0.107524
2314.8	0.244777	-0.107205
2315.8	0.244424	-0.106891
2316.8	0.244071	-0.106582
2317.8	0.243716	-0.106278
2318.8	0.243361	-0.105979
2319.8	0.243006	-0.105686
2320.8	0.242650	-0.105397
2321.8	0.242293	-0.105114
2322.8	0.241936	-0.104836
2323.8	0.241578	-0.104563
2324.8	0.241220	-0.104295
2325.8	0.240862	-0.104033
2326.8	0.240503	-0.103776
2327.8	0.240145	-0.103524
2328.8	0.239786	-0.103277
2329.8	0.239427	-0.103036
2330.8	0.239069	-0.102800
2331.8	0.238710	-0.102569
2332.8	0.238352	-0.102344
2333.8	0.237994	-0.102124
2334.8	0.237636	-0.101909
2335.8	0.237278	-0.101700
2336.8	0.236921	-0.101496
2337.8	0.236565	-0.101298
2338.8	0.236209	-0.101104
2339.8	0.235853	-0.100917
2340.8	0.235499	-0.100734
2341.8	0.235145	-0.100558
2342.8	0.234792	-0.100386
2343.8	0.234440	-0.100220
2344.8	0.234088	-0.100060
2345.8	0.233738	-0.099905
2346.8	0.233389	-0.099755
2347.8	0.233041	-0.099611
2348.8	0.232694	-0.099472
2349.8	0.232349	-0.099339
2350.8	0.232005	-0.099212
2351.8	0.231662	-0.099089
2352.8	0.231321	-0.098973
2353.8	0.230981	-0.098862
2354.8	0.230643	-0.098756
2355.8	0.230307	-0.098656
2356.8	0.229972	-0.098561
2357.8	0.229640	-0.098472
2358.8	0.229309	-0.098388
2359.8	0.228980	-0.098310
2360.8	0.228653	-0.098238
2361.8	0.228329	-0.098171
2362.8	0.228006	-0.098109
2363.8	0.227686	-0.098053
2364.8	0.227368	-0.098002
2365.8	0.227052	-0.097957
2366.8	0.226739	-0.097918
2367.9	0.226429	-0.097884
2368.9	0.226121	-0.097855
2369.9	0.225816	-0.097832
2370.9	0.225513	-0.097814
2371.9	0.225214	-0.097802
2372.9	0.224917	-0.097796
2373.9	0.224623	-0.097794
2374.9	0.224333	-0.097798
2375.9	0.224045	-0.097808
2376.9	0.223761	-0.097823
2377.9	0.223480	-0.097844
2378.9	0.223202	-0.097870
2379.9	0.222927	-0.097901
2380.9	0.222659	-0.097946
