   W         E1+(eta_p)
 (MeV)      Re         Im
 1486.0    0.011936  -0.000763
 1487.0    0.013074  -0.001241
 1488.0    0.014211  -0.001719
 1489.0    0.015348  -0.002197
 1490.0    0.016486  -0.002676
 1491.0    0.017623  -0.003154
 1492.0    0.018761  -0.003632
 1493.0    0.019898  -0.004110
 1494.0    0.021035  -0.004588
 1495.0    0.022173  -0.005066
 1496.0    0.022802  -0.005589
 1497.0    0.023431  -0.006112
 1498.0    0.024059  -0.006635
 1499.0    0.024688  -0.007158
 1500.0    0.025317  -0.007681
 1501.0    0.025684  -0.008248
 1502.0    0.026051  -0.008814
 1503.0    0.026418  -0.009381
 1504.0    0.026785  -0.009948
 1505.0    0.027152  -0.010515
 1506.0    0.027360  -0.011123
 1507.0    0.027567  -0.011730
 1508.0    0.027775  -0.012338
 1509.0    0.027983  -0.012945
 1510.0    0.028191  -0.013553
 1511.0    0.028294  -0.014197
 1512.0    0.028398  -0.014840
 1513.0    0.028501  -0.015483
 1514.0    0.028605  -0.016127
 1515.0    0.028708  -0.016770
 1516.0    0.028743  -0.017446
 1517.0    0.028778  -0.018122
 1518.0    0.028813  -0.018798
 1519.0    0.028848  -0.019474
 1520.0    0.028883  -0.020150
 1521.0    0.028873  -0.020854
 1522.0    0.028862  -0.021558
 1523.0    0.028851  -0.022261
 1524.0    0.028840  -0.022965
 1525.0    0.028829  -0.023669
 1526.0    0.028790  -0.024397
 1527.0    0.028751  -0.025126
 1528.0    0.028711  -0.025854
 1529.0    0.028672  -0.026583
 1530.0    0.028632  -0.027311
 1531.0    0.028577  -0.028061
 1532.0    0.028521  -0.028810
 1533.0    0.028465  -0.029560
 1534.0    0.028409  -0.030309
 1535.0    0.028353  -0.031059
 1536.0    0.028291  -0.031827
 1537.0    0.028228  -0.032595
 1538.0    0.028166  -0.033363
 1539.0    0.028103  -0.034131
 1540.0    0.028041  -0.034899
 1541.0    0.027979  -0.035683
 1542.0    0.027917  -0.036467
 1543.0    0.027855  -0.037250
 1544.0    0.027793  -0.038034
 1545.0    0.027731  -0.038818
 1546.0    0.027674  -0.039615
 1547.0    0.027617  -0.040413
 1548.0    0.027559  -0.041210
 1549.0    0.027502  -0.042007
 1550.0    0.027445  -0.042805
 1551.0    0.027408  -0.043611
 1552.0    0.027371  -0.044418
 1553.0    0.027333  -0.045224
 1554.0    0.027296  -0.046031
 1555.0    0.027259  -0.046837
 1556.0    0.027235  -0.047653
 1557.0    0.027210  -0.048469
 1558.0    0.027186  -0.049285
 1559.0    0.027162  -0.050100
 1560.0    0.027137  -0.050916
 1561.0    0.027120  -0.051742
 1562.0    0.027103  -0.052567
 1563.0    0.027086  -0.053393
 1564.0    0.027069  -0.054218
 1565.0    0.027052  -0.055044
 1566.0    0.027047  -0.055878
 1567.0    0.027042  -0.056712
 1568.0    0.027036  -0.057546
 1569.0    0.027031  -0.058381
 1570.0    0.027026  -0.059215
 1571.0    0.027052  -0.060049
 1572.0    0.027079  -0.060884
 1573.0    0.027105  -0.061718
 1574.0    0.027132  -0.062552
 1575.0    0.027158  -0.063387
 1576.0    0.027205  -0.064226
 1577.0    0.027253  -0.065066
 1578.0    0.027300  -0.065905
 1579.0    0.027348  -0.066745
 1580.0    0.027395  -0.067584
 1581.0    0.027466  -0.068430
 1582.0    0.027537  -0.069276
 1583.0    0.027608  -0.070122
 1584.0    0.027679  -0.070968
 1585.0    0.027750  -0.071813
 1586.0    0.027844  -0.072661
 1587.0    0.027939  -0.073508
 1588.0    0.028034  -0.074355
 1589.0    0.028129  -0.075202
 1590.0    0.028224  -0.076049
 1591.0    0.028343  -0.076899
 1592.0    0.028463  -0.077749
 1593.0    0.028582  -0.078599
 1594.0    0.028702  -0.079449
 1595.0    0.028821  -0.080299
 1596.0    0.028965  -0.081155
 1597.0    0.029109  -0.082010
 1598.0    0.029253  -0.082865
 1599.0    0.029396  -0.083720
 1600.0    0.029540  -0.084575
 1601.0    0.029707  -0.085439
 1602.0    0.029875  -0.086302
 1603.0    0.030042  -0.087165
 1604.0    0.030209  -0.088028
 1605.0    0.030376  -0.088892
 1606.0    0.030570  -0.089763
 1607.0    0.030763  -0.090634
 1608.0    0.030957  -0.091505
 1609.0    0.031150  -0.092376
 1610.0    0.031343  -0.093247
 1611.0    0.031611  -0.094091
 1612.0    0.031879  -0.094934
 1613.0    0.032146  -0.095778
 1614.0    0.032414  -0.096622
 1615.0    0.032682  -0.097466
 1616.0    0.033001  -0.098315
 1617.0    0.033321  -0.099164
 1618.0    0.033640  -0.100013
 1619.0    0.033959  -0.100861
 1620.0    0.034279  -0.101710
 1621.0    0.034648  -0.102561
 1622.0    0.035018  -0.103412
 1623.0    0.035388  -0.104263
 1624.0    0.035757  -0.105114
 1625.0    0.036127  -0.105965
 1626.0    0.036546  -0.106813
 1627.0    0.036965  -0.107661
 1628.0    0.037384  -0.108510
 1629.0    0.037804  -0.109358
 1630.0    0.038223  -0.110206
 1631.0    0.038698  -0.111055
 1632.0    0.039174  -0.111904
 1633.0    0.039649  -0.112753
 1634.0    0.040125  -0.113602
 1635.0    0.040600  -0.114451
 1636.0    0.041129  -0.115292
 1637.0    0.041658  -0.116134
 1638.0    0.042186  -0.116976
 1639.0    0.042715  -0.117817
 1640.0    0.043244  -0.118659
 1641.0    0.043829  -0.119492
 1642.0    0.044414  -0.120324
 1643.0    0.044998  -0.121157
 1644.0    0.045583  -0.121990
 1645.0    0.046168  -0.122823
 1646.0    0.046816  -0.123639
 1647.0    0.047463  -0.124454
 1648.0    0.048110  -0.125270
 1649.0    0.048758  -0.126086
 1650.0    0.049405  -0.126902
 1651.0    0.050106  -0.127707
 1652.0    0.050806  -0.128512
 1653.0    0.051506  -0.129316
 1654.0    0.052206  -0.130121
 1655.0    0.052907  -0.130926
 1656.0    0.053664  -0.131716
 1657.0    0.054422  -0.132507
 1658.0    0.055180  -0.133297
 1659.0    0.055938  -0.134088
 1660.0    0.056696  -0.134878
 1661.0    0.057513  -0.135637
 1662.0    0.058331  -0.136395
 1663.0    0.059148  -0.137153
 1664.0    0.059966  -0.137911
 1665.0    0.060783  -0.138669
 1666.0    0.061663  -0.139400
 1667.0    0.062542  -0.140131
 1668.0    0.063422  -0.140862
 1669.0    0.064302  -0.141594
 1670.0    0.065181  -0.142325
 1671.0    0.066115  -0.143028
 1672.0    0.067048  -0.143732
 1673.0    0.067982  -0.144435
 1674.0    0.068916  -0.145139
 1675.0    0.069849  -0.145842
 1676.0    0.070834  -0.146518
 1677.0    0.071819  -0.147194
 1678.0    0.072804  -0.147870
 1679.0    0.073789  -0.148546
 1680.0    0.074774  -0.149222
 1681.0    0.075848  -0.149829
 1682.0    0.076921  -0.150437
 1683.0    0.077995  -0.151044
 1684.0    0.079068  -0.151652
 1685.0    0.080142  -0.152260
 1686.0    0.081371  -0.152753
 1687.0    0.082601  -0.153246
 1688.0    0.083830  -0.153739
 1689.0    0.085060  -0.154232
 1690.0    0.086289  -0.154725
 1691.0    0.087595  -0.155153
 1692.0    0.088901  -0.155581
 1693.0    0.090207  -0.156008
 1694.0    0.091513  -0.156436
 1695.0    0.092819  -0.156864
 1696.0    0.094186  -0.157212
 1697.0    0.095552  -0.157560
 1698.0    0.096919  -0.157908
 1699.0    0.098285  -0.158256
 1700.0    0.099652  -0.158604
 1701.0    0.101067  -0.158862
 1702.0    0.102482  -0.159120
 1703.0    0.103898  -0.159378
 1704.0    0.105313  -0.159636
 1705.0    0.106728  -0.159894
 1706.0    0.108183  -0.160055
 1707.0    0.109638  -0.160217
 1708.0    0.111093  -0.160379
 1709.0    0.112548  -0.160540
 1710.0    0.114004  -0.160702
 1711.0    0.115482  -0.160754
 1712.0    0.116960  -0.160807
 1713.0    0.118438  -0.160859
 1714.0    0.119916  -0.160912
 1715.0    0.121394  -0.160965
 1716.0    0.122891  -0.160909
 1717.0    0.124388  -0.160854
 1718.0    0.125885  -0.160798
 1719.0    0.127382  -0.160743
 1720.0    0.128879  -0.160687
 1721.0    0.130380  -0.160516
 1722.0    0.131882  -0.160345
 1723.0    0.133383  -0.160173
 1724.0    0.134885  -0.160002
 1725.0    0.136386  -0.159831
 1726.0    0.137882  -0.159541
 1727.0    0.139378  -0.159251
 1728.0    0.140874  -0.158961
 1729.0    0.142370  -0.158671
 1730.0    0.143866  -0.158381
 1731.0    0.145345  -0.157970
 1732.0    0.146824  -0.157558
 1733.0    0.148303  -0.157147
 1734.0    0.149782  -0.156735
 1735.0    0.151262  -0.156324
 1736.0    0.152713  -0.155789
 1737.0    0.154164  -0.155254
 1738.0    0.155616  -0.154720
 1739.0    0.157067  -0.154185
 1740.0    0.158519  -0.153650
 1741.0    0.159931  -0.152991
 1742.0    0.161344  -0.152332
 1743.0    0.162757  -0.151673
 1744.0    0.164169  -0.151014
 1745.0    0.165582  -0.150355
 1746.0    0.166945  -0.149572
 1747.0    0.168308  -0.148788
 1748.0    0.169671  -0.148005
 1749.0    0.171034  -0.147221
 1750.0    0.172398  -0.146438
 1751.0    0.173700  -0.145530
 1752.0    0.175003  -0.144623
 1753.0    0.176305  -0.143716
 1754.0    0.177608  -0.142808
 1755.0    0.178910  -0.141901
 1756.0    0.180141  -0.140870
 1757.0    0.181372  -0.139840
 1758.0    0.182604  -0.138810
 1759.0    0.183835  -0.137780
 1760.0    0.185066  -0.136750
 1761.0    0.186213  -0.135598
 1762.0    0.187360  -0.134446
 1763.0    0.188508  -0.133294
 1764.0    0.189655  -0.132143
 1765.0    0.190802  -0.130991
 1766.0    0.191857  -0.129721
 1767.0    0.192911  -0.128452
 1768.0    0.193966  -0.127182
 1769.0    0.195021  -0.125912
 1770.0    0.196075  -0.124643
 1771.0    0.197024  -0.123258
 1772.0    0.197974  -0.121873
 1773.0    0.198923  -0.120488
 1774.0    0.199872  -0.119103
 1775.0    0.200821  -0.117718
 1776.0    0.201653  -0.116222
 1777.0    0.202484  -0.114726
 1778.0    0.203316  -0.113230
 1779.0    0.204148  -0.111734
 1780.0    0.204980  -0.110238
 1781.0    0.205682  -0.108636
 1782.0    0.206384  -0.107034
 1783.0    0.207086  -0.105432
 1784.0    0.207788  -0.103830
 1785.0    0.208490  -0.102228
 1786.0    0.209050  -0.100526
 1787.0    0.209609  -0.098824
 1788.0    0.210169  -0.097122
 1789.0    0.210729  -0.095420
 1790.0    0.211288  -0.093718
 1791.0    0.211692  -0.091923
 1792.0    0.212096  -0.090128
 1793.0    0.212500  -0.088333
 1794.0    0.212904  -0.086539
 1795.0    0.213308  -0.084744
 1796.0    0.213543  -0.082865
 1797.0    0.213777  -0.080987
 1798.0    0.214012  -0.079108
 1799.0    0.214246  -0.077230
 1800.0    0.214481  -0.075351
 1801.0    0.214542  -0.073401
 1802.0    0.214602  -0.071450
 1803.0    0.214663  -0.069500
 1804.0    0.214724  -0.067549
 1805.0    0.214784  -0.065599
 1806.0    0.214702  -0.063589
 1807.0    0.214621  -0.061579
 1808.0    0.214539  -0.059569
 1809.0    0.214457  -0.057559
 1810.0    0.214375  -0.055549
 1811.0    0.213928  -0.053489
 1812.0    0.213481  -0.051429
 1813.0    0.213034  -0.049369
 1814.0    0.212587  -0.047309
 1815.0    0.212140  -0.045249
 1816.0    0.211563  -0.043165
 1817.0    0.210986  -0.041080
 1818.0    0.210409  -0.038996
 1819.0    0.209831  -0.036912
 1820.0    0.209254  -0.034828
 1821.0    0.208424  -0.032738
 1822.0    0.207595  -0.030648
 1823.0    0.206765  -0.028558
 1824.0    0.205935  -0.026468
 1825.0    0.205105  -0.024378
 1826.0    0.204020  -0.022308
 1827.0    0.202935  -0.020237
 1828.0    0.201850  -0.018166
 1829.0    0.200766  -0.016095
 1830.0    0.199681  -0.014025
 1831.0    0.198330  -0.012002
 1832.0    0.196979  -0.009979
 1833.0    0.195628  -0.007955
 1834.0    0.194277  -0.005932
 1835.0    0.192925  -0.003909
 1836.0    0.191301  -0.001969
 1837.0    0.189676  -0.000028
 1838.0    0.188051   0.001913
 1839.0    0.186427   0.003853
 1840.0    0.184802   0.005794
 1841.0    0.182899   0.007619
 1842.0    0.180996   0.009445
 1843.0    0.179094   0.011270
 1844.0    0.177191   0.013096
 1845.0    0.175288   0.014921
 1846.0    0.173102   0.016583
 1847.0    0.170915   0.018244
 1848.0    0.168729   0.019905
 1849.0    0.166542   0.021566
 1850.0    0.164356   0.023227
 1851.0    0.161900   0.024685
 1852.0    0.159445   0.026143
 1853.0    0.156989   0.027601
 1854.0    0.154533   0.029060
 1855.0    0.152077   0.030518
 1856.0    0.149366   0.031723
 1857.0    0.146654   0.032929
 1858.0    0.143943   0.034135
 1859.0    0.141231   0.035340
 1860.0    0.138520   0.036546
 1861.0    0.135574   0.037451
 1862.0    0.132629   0.038355
 1863.0    0.129683   0.039259
 1864.0    0.126738   0.040164
 1865.0    0.123792   0.041068
 1866.0    0.120646   0.041623
 1867.0    0.117499   0.042178
 1868.0    0.114352   0.042733
 1869.0    0.111206   0.043288
 1870.0    0.108059   0.043843
 1871.0    0.104764   0.044005
 1872.0    0.101468   0.044167
 1873.0    0.098173   0.044328
 1874.0    0.094877   0.044490
 1875.0    0.091582   0.044652
 1876.0    0.088192   0.044383
 1877.0    0.084803   0.044113
 1878.0    0.081413   0.043844
 1879.0    0.078023   0.043575
 1880.0    0.074634   0.043305
 1881.0    0.071218   0.042577
 1882.0    0.067803   0.041849
 1883.0    0.064388   0.041121
 1884.0    0.060973   0.040393
 1885.0    0.057558   0.039665
 1886.0    0.054194   0.038464
 1887.0    0.050829   0.037263
 1888.0    0.047465   0.036062
 1889.0    0.044101   0.034861
 1890.0    0.040737   0.033660
 1891.0    0.037506   0.031987
 1892.0    0.034275   0.030314
 1893.0    0.031043   0.028642
 1894.0    0.027812   0.026969
 1895.0    0.024581   0.025297
 1896.0    0.021565   0.023172
 1897.0    0.018550   0.021048
 1898.0    0.015534   0.018923
 1899.0    0.012519   0.016799
 1900.0    0.009503   0.014674
 1901.0    0.006783   0.012136
 1902.0    0.004062   0.009598
 1903.0    0.001341   0.007059
 1904.0   -0.001379   0.004521
 1905.0   -0.004100   0.001982
 1906.0   -0.006456  -0.000915
 1907.0   -0.008812  -0.003813
 1908.0   -0.011168  -0.006710
 1909.0   -0.013524  -0.009608
 1910.0   -0.015880  -0.012505
 1911.0   -0.017814  -0.015692
 1912.0   -0.019749  -0.018878
 1913.0   -0.021683  -0.022065
 1914.0   -0.023617  -0.025252
 1915.0   -0.025551  -0.028438
 1916.0   -0.027025  -0.031835
 1917.0   -0.028498  -0.035231
 1918.0   -0.029971  -0.038628
 1919.0   -0.031444  -0.042024
 1920.0   -0.032917  -0.045421
 1921.0   -0.033921  -0.049036
 1922.0   -0.034925  -0.052651
 1923.0   -0.035929  -0.056266
 1924.0   -0.036933  -0.059881
 1925.0   -0.037937  -0.063496
 1926.0   -0.038430  -0.066959
 1927.0   -0.038922  -0.070422
 1928.0   -0.039415  -0.073885
 1929.0   -0.039908  -0.077349
 1930.0   -0.040401  -0.080812
 1931.0   -0.040439  -0.084333
 1932.0   -0.040476  -0.087853
 1933.0   -0.040514  -0.091374
 1934.0   -0.040552  -0.094895
 1935.0   -0.040589  -0.098416
 1936.0   -0.040189  -0.101821
 1937.0   -0.039789  -0.105226
 1938.0   -0.039388  -0.108630
 1939.0   -0.038988  -0.112035
 1940.0   -0.038588  -0.115440
 1941.0   -0.037792  -0.118671
 1942.0   -0.036995  -0.121902
 1943.0   -0.036199  -0.125133
 1944.0   -0.035403  -0.128364
 1945.0   -0.034607  -0.131595
 1946.0   -0.033320  -0.135043
 1947.0   -0.032032  -0.138491
 1948.0   -0.030745  -0.141939
 1949.0   -0.029458  -0.145387
 1950.0   -0.028170  -0.148835
 1951.0   -0.026882  -0.151150
 1952.0   -0.025594  -0.153464
 1953.0   -0.024306  -0.155779
 1954.0   -0.023017  -0.158093
 1955.0   -0.021729  -0.160407
 1956.0   -0.020059  -0.162883
 1957.0   -0.018388  -0.165358
 1958.0   -0.016718  -0.167834
 1959.0   -0.015047  -0.170309
 1960.0   -0.013377  -0.172785
 1961.0   -0.011523  -0.174971
 1962.0   -0.009669  -0.177157
 1963.0   -0.007814  -0.179343
 1964.0   -0.005960  -0.181530
 1965.0   -0.004106  -0.183716
 1966.0   -0.002117  -0.185612
 1967.0   -0.000129  -0.187508
 1968.0    0.001860  -0.189403
 1969.0    0.003849  -0.191299
 1970.0    0.005837  -0.193195
 1971.0    0.007916  -0.194807
