   W         M3-(eta_p)
 (MeV)      Re         Im
 1486.0    0.000007   0.000065
 1487.0    0.000003   0.000024
 1488.0   -0.000001  -0.000016
 1489.0   -0.000006  -0.000056
 1490.0   -0.000010  -0.000096
 1491.0   -0.000014  -0.000136
 1492.0   -0.000018  -0.000176
 1493.0   -0.000022  -0.000217
 1494.0   -0.000027  -0.000257
 1495.0   -0.000031  -0.000297
 1496.0   -0.000037  -0.000349
 1497.0   -0.000043  -0.000401
 1498.0   -0.000050  -0.000452
 1499.0   -0.000056  -0.000504
 1500.0   -0.000062  -0.000556
 1501.0   -0.000069  -0.000618
 1502.0   -0.000076  -0.000680
 1503.0   -0.000084  -0.000742
 1504.0   -0.000091  -0.000804
 1505.0   -0.000098  -0.000866
 1506.0   -0.000107  -0.000935
 1507.0   -0.000117  -0.001004
 1508.0   -0.000126  -0.001073
 1509.0   -0.000136  -0.001142
 1510.0   -0.000145  -0.001211
 1511.0   -0.000158  -0.001285
 1512.0   -0.000170  -0.001360
 1513.0   -0.000183  -0.001435
 1514.0   -0.000195  -0.001509
 1515.0   -0.000208  -0.001584
 1516.0   -0.000223  -0.001664
 1517.0   -0.000239  -0.001744
 1518.0   -0.000254  -0.001824
 1519.0   -0.000270  -0.001904
 1520.0   -0.000285  -0.001984
 1521.0   -0.000305  -0.002068
 1522.0   -0.000326  -0.002152
 1523.0   -0.000346  -0.002236
 1524.0   -0.000366  -0.002319
 1525.0   -0.000386  -0.002403
 1526.0   -0.000412  -0.002491
 1527.0   -0.000437  -0.002578
 1528.0   -0.000463  -0.002665
 1529.0   -0.000488  -0.002753
 1530.0   -0.000514  -0.002840
 1531.0   -0.000546  -0.002930
 1532.0   -0.000579  -0.003020
 1533.0   -0.000612  -0.003110
 1534.0   -0.000644  -0.003199
 1535.0   -0.000677  -0.003289
 1536.0   -0.000718  -0.003381
 1537.0   -0.000759  -0.003474
 1538.0   -0.000801  -0.003566
 1539.0   -0.000842  -0.003658
 1540.0   -0.000883  -0.003750
 1541.0   -0.000935  -0.003844
 1542.0   -0.000987  -0.003938
 1543.0   -0.001038  -0.004032
 1544.0   -0.001090  -0.004127
 1545.0   -0.001142  -0.004221
 1546.0   -0.001207  -0.004317
 1547.0   -0.001272  -0.004413
 1548.0   -0.001336  -0.004510
 1549.0   -0.001401  -0.004606
 1550.0   -0.001466  -0.004702
 1551.0   -0.001546  -0.004801
 1552.0   -0.001626  -0.004899
 1553.0   -0.001706  -0.004997
 1554.0   -0.001786  -0.005096
 1555.0   -0.001866  -0.005194
 1556.0   -0.001965  -0.005295
 1557.0   -0.002064  -0.005397
 1558.0   -0.002162  -0.005498
 1559.0   -0.002261  -0.005599
 1560.0   -0.002359  -0.005700
 1561.0   -0.002480  -0.005806
 1562.0   -0.002600  -0.005911
 1563.0   -0.002721  -0.006016
 1564.0   -0.002841  -0.006121
 1565.0   -0.002962  -0.006227
 1566.0   -0.003108  -0.006337
 1567.0   -0.003254  -0.006448
 1568.0   -0.003400  -0.006559
 1569.0   -0.003547  -0.006670
 1570.0   -0.003693  -0.006781
 1571.0   -0.003869  -0.006900
 1572.0   -0.004045  -0.007018
 1573.0   -0.004222  -0.007137
 1574.0   -0.004398  -0.007256
 1575.0   -0.004574  -0.007375
 1576.0   -0.004786  -0.007505
 1577.0   -0.004998  -0.007635
 1578.0   -0.005209  -0.007765
 1579.0   -0.005421  -0.007895
 1580.0   -0.005633  -0.008026
 1581.0   -0.005883  -0.008172
 1582.0   -0.006134  -0.008318
 1583.0   -0.006384  -0.008464
 1584.0   -0.006635  -0.008611
 1585.0   -0.006885  -0.008757
 1586.0   -0.007182  -0.008925
 1587.0   -0.007478  -0.009093
 1588.0   -0.007775  -0.009261
 1589.0   -0.008071  -0.009429
 1590.0   -0.008367  -0.009597
 1591.0   -0.008715  -0.009795
 1592.0   -0.009062  -0.009993
 1593.0   -0.009410  -0.010191
 1594.0   -0.009757  -0.010389
 1595.0   -0.010105  -0.010587
 1596.0   -0.010509  -0.010825
 1597.0   -0.010913  -0.011063
 1598.0   -0.011317  -0.011301
 1599.0   -0.011721  -0.011539
 1600.0   -0.012125  -0.011777
 1601.0   -0.012590  -0.012067
 1602.0   -0.013056  -0.012358
 1603.0   -0.013522  -0.012649
 1604.0   -0.013987  -0.012940
 1605.0   -0.014453  -0.013230
 1606.0   -0.014984  -0.013590
 1607.0   -0.015515  -0.013950
 1608.0   -0.016047  -0.014310
 1609.0   -0.016578  -0.014670
 1610.0   -0.017109  -0.015029
 1611.0   -0.017707  -0.015478
 1612.0   -0.018306  -0.015927
 1613.0   -0.018904  -0.016375
 1614.0   -0.019502  -0.016824
 1615.0   -0.020101  -0.017273
 1616.0   -0.020765  -0.017834
 1617.0   -0.021429  -0.018396
 1618.0   -0.022093  -0.018958
 1619.0   -0.022757  -0.019519
 1620.0   -0.023421  -0.020081
 1621.0   -0.024144  -0.020783
 1622.0   -0.024867  -0.021486
 1623.0   -0.025589  -0.022189
 1624.0   -0.026312  -0.022891
 1625.0   -0.027035  -0.023594
 1626.0   -0.027805  -0.024469
 1627.0   -0.028574  -0.025343
 1628.0   -0.029344  -0.026218
 1629.0   -0.030113  -0.027093
 1630.0   -0.030883  -0.027968
 1631.0   -0.031669  -0.029052
 1632.0   -0.032456  -0.030136
 1633.0   -0.033243  -0.031220
 1634.0   -0.034030  -0.032304
 1635.0   -0.034817  -0.033388
 1636.0   -0.035589  -0.034713
 1637.0   -0.036360  -0.036039
 1638.0   -0.037132  -0.037364
 1639.0   -0.037903  -0.038689
 1640.0   -0.038675  -0.040015
 1641.0   -0.039378  -0.041612
 1642.0   -0.040080  -0.043209
 1643.0   -0.040782  -0.044807
 1644.0   -0.041485  -0.046404
 1645.0   -0.042187  -0.048002
 1646.0   -0.042751  -0.049890
 1647.0   -0.043315  -0.051779
 1648.0   -0.043879  -0.053667
 1649.0   -0.044443  -0.055556
 1650.0   -0.045007  -0.057445
 1651.0   -0.045348  -0.059625
 1652.0   -0.045689  -0.061805
 1653.0   -0.046029  -0.063986
 1654.0   -0.046370  -0.066166
 1655.0   -0.046711  -0.068346
 1656.0   -0.046736  -0.070792
 1657.0   -0.046762  -0.073238
 1658.0   -0.046787  -0.075685
 1659.0   -0.046812  -0.078131
 1660.0   -0.046838  -0.080577
 1661.0   -0.046449  -0.083223
 1662.0   -0.046060  -0.085869
 1663.0   -0.045671  -0.088515
 1664.0   -0.045283  -0.091161
 1665.0   -0.044894  -0.093808
 1666.0   -0.044020  -0.096560
 1667.0   -0.043146  -0.099313
 1668.0   -0.042272  -0.102066
 1669.0   -0.041398  -0.104819
 1670.0   -0.040524  -0.107572
 1671.0   -0.039118  -0.110301
 1672.0   -0.037713  -0.113031
 1673.0   -0.036307  -0.115760
 1674.0   -0.034901  -0.118490
 1675.0   -0.033496  -0.121219
 1676.0   -0.031560  -0.123782
 1677.0   -0.029624  -0.126344
 1678.0   -0.027689  -0.128907
 1679.0   -0.025753  -0.131470
 1680.0   -0.023817  -0.134032
 1681.0   -0.021404  -0.136290
 1682.0   -0.018991  -0.138547
 1683.0   -0.016578  -0.140805
 1684.0   -0.014164  -0.143062
 1685.0   -0.011751  -0.145320
 1686.0   -0.008957  -0.147160
 1687.0   -0.006162  -0.149001
 1688.0   -0.003368  -0.150842
 1689.0   -0.000573  -0.152682
 1690.0    0.002221  -0.154523
 1691.0    0.005272  -0.155876
 1692.0    0.008323  -0.157230
 1693.0    0.011374  -0.158584
 1694.0    0.014425  -0.159937
 1695.0    0.017476  -0.161291
 1696.0    0.020651  -0.162133
 1697.0    0.023825  -0.162976
 1698.0    0.027000  -0.163819
 1699.0    0.030175  -0.164662
 1700.0    0.033349  -0.165504
 1701.0    0.036525  -0.165855
 1702.0    0.039701  -0.166205
 1703.0    0.042876  -0.166555
 1704.0    0.046052  -0.166905
 1705.0    0.049227  -0.167255
 1706.0    0.052305  -0.167163
 1707.0    0.055382  -0.167071
 1708.0    0.058459  -0.166978
 1709.0    0.061536  -0.166886
 1710.0    0.064613  -0.166794
 1711.0    0.067516  -0.166322
 1712.0    0.070418  -0.165850
 1713.0    0.073321  -0.165378
 1714.0    0.076223  -0.164906
 1715.0    0.079126  -0.164434
 1716.0    0.081812  -0.163660
 1717.0    0.084498  -0.162886
 1718.0    0.087184  -0.162112
 1719.0    0.089870  -0.161338
 1720.0    0.092557  -0.160564
 1721.0    0.095002  -0.159557
 1722.0    0.097448  -0.158551
 1723.0    0.099893  -0.157544
 1724.0    0.102339  -0.156537
 1725.0    0.104784  -0.155530
 1726.0    0.106985  -0.154354
 1727.0    0.109186  -0.153178
 1728.0    0.111387  -0.152001
 1729.0    0.113588  -0.150825
 1730.0    0.115788  -0.149649
 1731.0    0.117752  -0.148356
 1732.0    0.119716  -0.147064
 1733.0    0.121679  -0.145771
 1734.0    0.123643  -0.144479
 1735.0    0.125607  -0.143186
 1736.0    0.127349  -0.141821
 1737.0    0.129091  -0.140455
 1738.0    0.130833  -0.139090
 1739.0    0.132575  -0.137724
 1740.0    0.134317  -0.136359
 1741.0    0.135856  -0.134954
 1742.0    0.137396  -0.133549
 1743.0    0.138936  -0.132144
 1744.0    0.140475  -0.130739
 1745.0    0.142015  -0.129334
 1746.0    0.143374  -0.127915
 1747.0    0.144733  -0.126495
 1748.0    0.146091  -0.125076
 1749.0    0.147450  -0.123657
 1750.0    0.148809  -0.122237
 1751.0    0.150007  -0.120822
 1752.0    0.151206  -0.119406
 1753.0    0.152405  -0.117990
 1754.0    0.153603  -0.116574
 1755.0    0.154802  -0.115159
 1756.0    0.155861  -0.113759
 1757.0    0.156919  -0.112360
 1758.0    0.157978  -0.110960
 1759.0    0.159036  -0.109561
 1760.0    0.160095  -0.108161
 1761.0    0.161032  -0.106787
 1762.0    0.161968  -0.105412
 1763.0    0.162905  -0.104037
 1764.0    0.163841  -0.102663
 1765.0    0.164778  -0.101288
 1766.0    0.165609  -0.099942
 1767.0    0.166440  -0.098596
 1768.0    0.167271  -0.097250
 1769.0    0.168102  -0.095905
 1770.0    0.168933  -0.094559
 1771.0    0.169673  -0.093245
 1772.0    0.170412  -0.091930
 1773.0    0.171152  -0.090616
 1774.0    0.171892  -0.089302
 1775.0    0.172631  -0.087988
 1776.0    0.173292  -0.086706
 1777.0    0.173953  -0.085424
 1778.0    0.174613  -0.084142
 1779.0    0.175274  -0.082860
 1780.0    0.175934  -0.081579
 1781.0    0.176526  -0.080329
 1782.0    0.177119  -0.079078
 1783.0    0.177711  -0.077828
 1784.0    0.178303  -0.076578
 1785.0    0.178895  -0.075328
 1786.0    0.179428  -0.074108
 1787.0    0.179960  -0.072888
 1788.0    0.180493  -0.071669
 1789.0    0.181025  -0.070449
 1790.0    0.181558  -0.069229
 1791.0    0.182038  -0.068037
 1792.0    0.182519  -0.066846
 1793.0    0.182999  -0.065654
 1794.0    0.183480  -0.064462
 1795.0    0.183961  -0.063271
 1796.0    0.184395  -0.062105
 1797.0    0.184830  -0.060939
 1798.0    0.185265  -0.059773
 1799.0    0.185700  -0.058608
 1800.0    0.186134  -0.057442
 1801.0    0.186529  -0.056300
 1802.0    0.186923  -0.055158
 1803.0    0.187318  -0.054016
 1804.0    0.187712  -0.052874
 1805.0    0.188106  -0.051732
 1806.0    0.188466  -0.050615
 1807.0    0.188825  -0.049499
 1808.0    0.189184  -0.048383
 1809.0    0.189543  -0.047267
 1810.0    0.189902  -0.046150
 1811.0    0.190225  -0.045040
 1812.0    0.190549  -0.043930
 1813.0    0.190872  -0.042819
 1814.0    0.191196  -0.041709
 1815.0    0.191519  -0.040599
 1816.0    0.191814  -0.039511
 1817.0    0.192109  -0.038424
 1818.0    0.192404  -0.037337
 1819.0    0.192699  -0.036250
 1820.0    0.192994  -0.035163
 1821.0    0.193261  -0.034088
 1822.0    0.193528  -0.033013
 1823.0    0.193794  -0.031939
 1824.0    0.194061  -0.030864
 1825.0    0.194328  -0.029789
 1826.0    0.194569  -0.028726
 1827.0    0.194809  -0.027662
 1828.0    0.195049  -0.026598
 1829.0    0.195290  -0.025534
 1830.0    0.195530  -0.024471
 1831.0    0.195745  -0.023416
 1832.0    0.195960  -0.022361
 1833.0    0.196176  -0.021306
 1834.0    0.196391  -0.020251
 1835.0    0.196606  -0.019197
 1836.0    0.196797  -0.018149
 1837.0    0.196989  -0.017102
 1838.0    0.197180  -0.016055
 1839.0    0.197372  -0.015008
 1840.0    0.197563  -0.013960
 1841.0    0.197731  -0.012918
 1842.0    0.197898  -0.011875
 1843.0    0.198065  -0.010833
 1844.0    0.198232  -0.009790
 1845.0    0.198399  -0.008748
 1846.0    0.198543  -0.007710
 1847.0    0.198687  -0.006671
 1848.0    0.198831  -0.005633
 1849.0    0.198975  -0.004595
 1850.0    0.199119  -0.003557
 1851.0    0.199239  -0.002521
 1852.0    0.199359  -0.001485
 1853.0    0.199479  -0.000450
 1854.0    0.199599   0.000586
 1855.0    0.199720   0.001622
 1856.0    0.199816   0.002656
 1857.0    0.199912   0.003691
 1858.0    0.200009   0.004726
 1859.0    0.200105   0.005760
 1860.0    0.200201   0.006795
 1861.0    0.200274   0.007829
 1862.0    0.200346   0.008863
 1863.0    0.200418   0.009897
 1864.0    0.200490   0.010931
 1865.0    0.200562   0.011965
 1866.0    0.200610   0.012999
 1867.0    0.200658   0.014032
 1868.0    0.200706   0.015066
 1869.0    0.200753   0.016100
 1870.0    0.200801   0.017134
 1871.0    0.200823   0.018169
 1872.0    0.200845   0.019204
 1873.0    0.200868   0.020239
 1874.0    0.200890   0.021274
 1875.0    0.200912   0.022309
 1876.0    0.200908   0.023346
 1877.0    0.200904   0.024382
 1878.0    0.200900   0.025419
 1879.0    0.200895   0.026455
 1880.0    0.200891   0.027492
 1881.0    0.200860   0.028529
 1882.0    0.200829   0.029567
 1883.0    0.200798   0.030605
 1884.0    0.200767   0.031643
 1885.0    0.200735   0.032681
 1886.0    0.200676   0.033721
 1887.0    0.200617   0.034760
 1888.0    0.200558   0.035800
 1889.0    0.200498   0.036839
 1890.0    0.200439   0.037879
 1891.0    0.200351   0.038919
 1892.0    0.200262   0.039960
 1893.0    0.200174   0.041001
 1894.0    0.200085   0.042042
 1895.0    0.199997   0.043083
 1896.0    0.199878   0.044125
 1897.0    0.199760   0.045166
 1898.0    0.199641   0.046208
 1899.0    0.199523   0.047250
 1900.0    0.199404   0.048292
 1901.0    0.199254   0.049334
 1902.0    0.199105   0.050376
 1903.0    0.198955   0.051419
 1904.0    0.198805   0.052461
 1905.0    0.198655   0.053503
 1906.0    0.198473   0.054545
 1907.0    0.198291   0.055587
 1908.0    0.198109   0.056629
 1909.0    0.197926   0.057671
 1910.0    0.197744   0.058713
 1911.0    0.197529   0.059754
 1912.0    0.197313   0.060794
 1913.0    0.197098   0.061835
 1914.0    0.196882   0.062875
 1915.0    0.196666   0.063916
 1916.0    0.196416   0.064954
 1917.0    0.196166   0.065992
 1918.0    0.195916   0.067030
 1919.0    0.195666   0.068069
 1920.0    0.195416   0.069107
 1921.0    0.195131   0.070141
 1922.0    0.194845   0.071175
 1923.0    0.194560   0.072210
 1924.0    0.194274   0.073244
 1925.0    0.193989   0.074278
 1926.0    0.193667   0.075307
 1927.0    0.193346   0.076336
 1928.0    0.193024   0.077365
 1929.0    0.192703   0.078394
 1930.0    0.192381   0.079423
 1931.0    0.192022   0.080445
 1932.0    0.191664   0.081467
 1933.0    0.191305   0.082489
 1934.0    0.190946   0.083511
 1935.0    0.190587   0.084532
 1936.0    0.190191   0.085545
 1937.0    0.189795   0.086558
 1938.0    0.189399   0.087571
 1939.0    0.189002   0.088584
 1940.0    0.188606   0.089596
 1941.0    0.188172   0.090598
 1942.0    0.187737   0.091600
 1943.0    0.187303   0.092601
 1944.0    0.186869   0.093603
 1945.0    0.186434   0.094605
 1946.0    0.185961   0.095593
 1947.0    0.185489   0.096581
 1948.0    0.185016   0.097570
 1949.0    0.184543   0.098558
 1950.0    0.184070   0.099546
 1951.0    0.183559   0.100519
 1952.0    0.183048   0.101491
 1953.0    0.182537   0.102464
 1954.0    0.182026   0.103436
 1955.0    0.181515   0.104409
 1956.0    0.180965   0.105363
 1957.0    0.180416   0.106318
 1958.0    0.179867   0.107272
 1959.0    0.179318   0.108226
 1960.0    0.178768   0.109181
 1961.0    0.178181   0.110114
 1962.0    0.177594   0.111048
 1963.0    0.177007   0.111982
 1964.0    0.176420   0.112915
 1965.0    0.175833   0.113849
 1966.0    0.175209   0.114759
 1967.0    0.174584   0.115669
 1968.0    0.173960   0.116580
 1969.0    0.173336   0.117490
 1970.0    0.172712   0.118400
 1971.0    0.172052   0.119284
