   W         M3+(eta_p)
 (MeV)      Re         Im
 1486.0   -0.000007   0.000090
 1487.0   -0.000004   0.000034
 1488.0   -0.000001  -0.000021
 1489.0    0.000002  -0.000077
 1490.0    0.000006  -0.000133
 1491.0    0.000009  -0.000188
 1492.0    0.000012  -0.000244
 1493.0    0.000015  -0.000299
 1494.0    0.000018  -0.000355
 1495.0    0.000022  -0.000410
 1496.0    0.000027  -0.000483
 1497.0    0.000033  -0.000556
 1498.0    0.000039  -0.000629
 1499.0    0.000045  -0.000702
 1500.0    0.000051  -0.000775
 1501.0    0.000059  -0.000861
 1502.0    0.000066  -0.000946
 1503.0    0.000074  -0.001032
 1504.0    0.000082  -0.001118
 1505.0    0.000089  -0.001203
 1506.0    0.000100  -0.001300
 1507.0    0.000110  -0.001397
 1508.0    0.000121  -0.001494
 1509.0    0.000131  -0.001590
 1510.0    0.000142  -0.001687
 1511.0    0.000156  -0.001794
 1512.0    0.000169  -0.001900
 1513.0    0.000183  -0.002007
 1514.0    0.000196  -0.002113
 1515.0    0.000210  -0.002219
 1516.0    0.000226  -0.002334
 1517.0    0.000242  -0.002448
 1518.0    0.000259  -0.002562
 1519.0    0.000275  -0.002677
 1520.0    0.000291  -0.002791
 1521.0    0.000311  -0.002912
 1522.0    0.000330  -0.003034
 1523.0    0.000350  -0.003156
 1524.0    0.000369  -0.003277
 1525.0    0.000389  -0.003399
 1526.0    0.000411  -0.003526
 1527.0    0.000433  -0.003654
 1528.0    0.000455  -0.003782
 1529.0    0.000478  -0.003909
 1530.0    0.000500  -0.004037
 1531.0    0.000526  -0.004170
 1532.0    0.000551  -0.004303
 1533.0    0.000577  -0.004437
 1534.0    0.000603  -0.004570
 1535.0    0.000629  -0.004703
 1536.0    0.000657  -0.004841
 1537.0    0.000686  -0.004979
 1538.0    0.000715  -0.005117
 1539.0    0.000744  -0.005255
 1540.0    0.000772  -0.005393
 1541.0    0.000804  -0.005535
 1542.0    0.000836  -0.005677
 1543.0    0.000868  -0.005819
 1544.0    0.000900  -0.005961
 1545.0    0.000932  -0.006103
 1546.0    0.000966  -0.006248
 1547.0    0.001000  -0.006393
 1548.0    0.001035  -0.006539
 1549.0    0.001069  -0.006684
 1550.0    0.001104  -0.006829
 1551.0    0.001142  -0.006977
 1552.0    0.001179  -0.007126
 1553.0    0.001217  -0.007274
 1554.0    0.001255  -0.007423
 1555.0    0.001293  -0.007571
 1556.0    0.001333  -0.007722
 1557.0    0.001374  -0.007872
 1558.0    0.001414  -0.008023
 1559.0    0.001455  -0.008174
 1560.0    0.001495  -0.008324
 1561.0    0.001538  -0.008477
 1562.0    0.001582  -0.008629
 1563.0    0.001625  -0.008782
 1564.0    0.001668  -0.008935
 1565.0    0.001711  -0.009087
 1566.0    0.001757  -0.009241
 1567.0    0.001803  -0.009395
 1568.0    0.001848  -0.009549
 1569.0    0.001894  -0.009703
 1570.0    0.001940  -0.009857
 1571.0    0.001988  -0.010012
 1572.0    0.002036  -0.010167
 1573.0    0.002084  -0.010322
 1574.0    0.002132  -0.010477
 1575.0    0.002180  -0.010632
 1576.0    0.002230  -0.010788
 1577.0    0.002280  -0.010943
 1578.0    0.002329  -0.011099
 1579.0    0.002379  -0.011255
 1580.0    0.002429  -0.011410
 1581.0    0.002481  -0.011566
 1582.0    0.002534  -0.011722
 1583.0    0.002586  -0.011877
 1584.0    0.002639  -0.012033
 1585.0    0.002691  -0.012189
 1586.0    0.002745  -0.012344
 1587.0    0.002799  -0.012500
 1588.0    0.002853  -0.012656
 1589.0    0.002907  -0.012811
 1590.0    0.002961  -0.012967
 1591.0    0.003016  -0.013122
 1592.0    0.003072  -0.013277
 1593.0    0.003127  -0.013432
 1594.0    0.003182  -0.013587
 1595.0    0.003238  -0.013743
 1596.0    0.003294  -0.013897
 1597.0    0.003351  -0.014051
 1598.0    0.003408  -0.014206
 1599.0    0.003464  -0.014360
 1600.0    0.003521  -0.014515
 1601.0    0.003579  -0.014668
 1602.0    0.003636  -0.014821
 1603.0    0.003694  -0.014975
 1604.0    0.003751  -0.015128
 1605.0    0.003809  -0.015281
 1606.0    0.003867  -0.015433
 1607.0    0.003925  -0.015585
 1608.0    0.003984  -0.015737
 1609.0    0.004042  -0.015890
 1610.0    0.004100  -0.016042
 1611.0    0.004159  -0.016192
 1612.0    0.004217  -0.016343
 1613.0    0.004276  -0.016493
 1614.0    0.004335  -0.016644
 1615.0    0.004393  -0.016795
 1616.0    0.004452  -0.016943
 1617.0    0.004511  -0.017092
 1618.0    0.004570  -0.017241
 1619.0    0.004628  -0.017390
 1620.0    0.004687  -0.017539
 1621.0    0.004746  -0.017686
 1622.0    0.004804  -0.017833
 1623.0    0.004863  -0.017981
 1624.0    0.004921  -0.018128
 1625.0    0.004980  -0.018275
 1626.0    0.005038  -0.018421
 1627.0    0.005096  -0.018567
 1628.0    0.005153  -0.018713
 1629.0    0.005211  -0.018859
 1630.0    0.005269  -0.019005
 1631.0    0.005327  -0.019147
 1632.0    0.005384  -0.019290
 1633.0    0.005441  -0.019432
 1634.0    0.005498  -0.019575
 1635.0    0.005555  -0.019718
 1636.0    0.005611  -0.019859
 1637.0    0.005667  -0.020000
 1638.0    0.005723  -0.020141
 1639.0    0.005779  -0.020282
 1640.0    0.005835  -0.020423
 1641.0    0.005889  -0.020563
 1642.0    0.005944  -0.020702
 1643.0    0.005998  -0.020841
 1644.0    0.006053  -0.020980
 1645.0    0.006107  -0.021119
 1646.0    0.006160  -0.021256
 1647.0    0.006213  -0.021393
 1648.0    0.006265  -0.021531
 1649.0    0.006318  -0.021668
 1650.0    0.006371  -0.021805
 1651.0    0.006421  -0.021940
 1652.0    0.006472  -0.022075
 1653.0    0.006523  -0.022211
 1654.0    0.006573  -0.022346
 1655.0    0.006624  -0.022481
 1656.0    0.006672  -0.022614
 1657.0    0.006721  -0.022748
 1658.0    0.006769  -0.022881
 1659.0    0.006817  -0.023014
 1660.0    0.006865  -0.023148
 1661.0    0.006911  -0.023279
 1662.0    0.006957  -0.023411
 1663.0    0.007002  -0.023543
 1664.0    0.007048  -0.023674
 1665.0    0.007093  -0.023806
 1666.0    0.007136  -0.023936
 1667.0    0.007179  -0.024066
 1668.0    0.007222  -0.024197
 1669.0    0.007264  -0.024327
 1670.0    0.007307  -0.024457
 1671.0    0.007347  -0.024586
 1672.0    0.007386  -0.024715
 1673.0    0.007426  -0.024843
 1674.0    0.007466  -0.024972
 1675.0    0.007505  -0.025101
 1676.0    0.007541  -0.025229
 1677.0    0.007578  -0.025356
 1678.0    0.007614  -0.025484
 1679.0    0.007650  -0.025612
 1680.0    0.007686  -0.025740
 1681.0    0.007719  -0.025867
 1682.0    0.007752  -0.025994
 1683.0    0.007785  -0.026121
 1684.0    0.007817  -0.026247
 1685.0    0.007850  -0.026374
 1686.0    0.007879  -0.026501
 1687.0    0.007908  -0.026627
 1688.0    0.007937  -0.026753
 1689.0    0.007966  -0.026880
 1690.0    0.007995  -0.027006
 1691.0    0.008020  -0.027132
 1692.0    0.008045  -0.027258
 1693.0    0.008070  -0.027385
 1694.0    0.008096  -0.027511
 1695.0    0.008121  -0.027637
 1696.0    0.008142  -0.027763
 1697.0    0.008163  -0.027889
 1698.0    0.008184  -0.028015
 1699.0    0.008205  -0.028142
 1700.0    0.008226  -0.028268
 1701.0    0.008243  -0.028394
 1702.0    0.008260  -0.028521
 1703.0    0.008277  -0.028647
 1704.0    0.008294  -0.028774
 1705.0    0.008311  -0.028900
 1706.0    0.008323  -0.029027
 1707.0    0.008334  -0.029153
 1708.0    0.008346  -0.029279
 1709.0    0.008358  -0.029406
 1710.0    0.008370  -0.029532
 1711.0    0.008379  -0.029661
 1712.0    0.008389  -0.029791
 1713.0    0.008399  -0.029920
 1714.0    0.008408  -0.030050
 1715.0    0.008418  -0.030179
 1716.0    0.008422  -0.030309
 1717.0    0.008426  -0.030438
 1718.0    0.008430  -0.030568
 1719.0    0.008434  -0.030698
 1720.0    0.008438  -0.030827
 1721.0    0.008437  -0.030959
 1722.0    0.008436  -0.031090
 1723.0    0.008436  -0.031221
 1724.0    0.008435  -0.031353
 1725.0    0.008435  -0.031484
 1726.0    0.008430  -0.031618
 1727.0    0.008425  -0.031751
 1728.0    0.008419  -0.031885
 1729.0    0.008414  -0.032018
 1730.0    0.008409  -0.032152
 1731.0    0.008399  -0.032288
 1732.0    0.008390  -0.032424
 1733.0    0.008380  -0.032560
 1734.0    0.008370  -0.032696
 1735.0    0.008361  -0.032832
 1736.0    0.008346  -0.032971
 1737.0    0.008332  -0.033110
 1738.0    0.008317  -0.033249
 1739.0    0.008303  -0.033388
 1740.0    0.008288  -0.033527
 1741.0    0.008269  -0.033669
 1742.0    0.008250  -0.033812
 1743.0    0.008231  -0.033954
 1744.0    0.008212  -0.034097
 1745.0    0.008193  -0.034239
 1746.0    0.008169  -0.034385
 1747.0    0.008145  -0.034531
 1748.0    0.008121  -0.034678
 1749.0    0.008097  -0.034824
 1750.0    0.008074  -0.034970
 1751.0    0.008045  -0.035121
 1752.0    0.008017  -0.035272
 1753.0    0.007988  -0.035422
 1754.0    0.007960  -0.035573
 1755.0    0.007931  -0.035724
 1756.0    0.007898  -0.035879
 1757.0    0.007865  -0.036035
 1758.0    0.007832  -0.036191
 1759.0    0.007799  -0.036347
 1760.0    0.007766  -0.036502
 1761.0    0.007728  -0.036664
 1762.0    0.007690  -0.036825
 1763.0    0.007653  -0.036986
 1764.0    0.007615  -0.037147
 1765.0    0.007577  -0.037309
 1766.0    0.007536  -0.037476
 1767.0    0.007494  -0.037644
 1768.0    0.007452  -0.037811
 1769.0    0.007410  -0.037979
 1770.0    0.007368  -0.038147
 1771.0    0.007322  -0.038321
 1772.0    0.007276  -0.038496
 1773.0    0.007230  -0.038670
 1774.0    0.007184  -0.038845
 1775.0    0.007138  -0.039019
 1776.0    0.007088  -0.039201
 1777.0    0.007039  -0.039384
 1778.0    0.006989  -0.039566
 1779.0    0.006939  -0.039748
 1780.0    0.006889  -0.039930
 1781.0    0.006836  -0.040121
 1782.0    0.006783  -0.040312
 1783.0    0.006730  -0.040503
 1784.0    0.006676  -0.040693
 1785.0    0.006623  -0.040884
 1786.0    0.006567  -0.041084
 1787.0    0.006511  -0.041284
 1788.0    0.006455  -0.041484
 1789.0    0.006398  -0.041684
 1790.0    0.006342  -0.041884
 1791.0    0.006284  -0.042094
 1792.0    0.006225  -0.042305
 1793.0    0.006166  -0.042515
 1794.0    0.006108  -0.042725
 1795.0    0.006049  -0.042935
 1796.0    0.005988  -0.043156
 1797.0    0.005928  -0.043378
 1798.0    0.005867  -0.043599
 1799.0    0.005807  -0.043820
 1800.0    0.005746  -0.044041
 1801.0    0.005685  -0.044275
 1802.0    0.005623  -0.044508
 1803.0    0.005562  -0.044741
 1804.0    0.005500  -0.044974
 1805.0    0.005439  -0.045208
 1806.0    0.005377  -0.045454
 1807.0    0.005315  -0.045700
 1808.0    0.005254  -0.045946
 1809.0    0.005192  -0.046192
 1810.0    0.005130  -0.046438
 1811.0    0.005069  -0.046698
 1812.0    0.005008  -0.046958
 1813.0    0.004947  -0.047218
 1814.0    0.004886  -0.047478
 1815.0    0.004824  -0.047738
 1816.0    0.004765  -0.048013
 1817.0    0.004706  -0.048288
 1818.0    0.004647  -0.048563
 1819.0    0.004588  -0.048838
 1820.0    0.004529  -0.049113
 1821.0    0.004474  -0.049404
 1822.0    0.004418  -0.049695
 1823.0    0.004362  -0.049985
 1824.0    0.004306  -0.050276
 1825.0    0.004251  -0.050567
 1826.0    0.004200  -0.050874
 1827.0    0.004149  -0.051182
 1828.0    0.004098  -0.051489
 1829.0    0.004047  -0.051797
 1830.0    0.003996  -0.052105
 1831.0    0.003951  -0.052430
 1832.0    0.003907  -0.052755
 1833.0    0.003863  -0.053081
 1834.0    0.003818  -0.053406
 1835.0    0.003774  -0.053731
 1836.0    0.003738  -0.054075
 1837.0    0.003701  -0.054419
 1838.0    0.003665  -0.054763
 1839.0    0.003629  -0.055106
 1840.0    0.003593  -0.055450
 1841.0    0.003569  -0.055814
 1842.0    0.003544  -0.056178
 1843.0    0.003520  -0.056541
 1844.0    0.003495  -0.056905
 1845.0    0.003471  -0.057269
 1846.0    0.003458  -0.057652
 1847.0    0.003446  -0.058035
 1848.0    0.003433  -0.058419
 1849.0    0.003420  -0.058802
 1850.0    0.003408  -0.059185
 1851.0    0.003411  -0.059589
 1852.0    0.003415  -0.059993
 1853.0    0.003419  -0.060397
 1854.0    0.003422  -0.060801
 1855.0    0.003426  -0.061206
 1856.0    0.003449  -0.061630
 1857.0    0.003471  -0.062055
 1858.0    0.003494  -0.062480
 1859.0    0.003517  -0.062905
 1860.0    0.003540  -0.063330
 1861.0    0.003585  -0.063776
 1862.0    0.003629  -0.064222
 1863.0    0.003674  -0.064669
 1864.0    0.003719  -0.065115
 1865.0    0.003764  -0.065561
 1866.0    0.003834  -0.066028
 1867.0    0.003905  -0.066495
 1868.0    0.003975  -0.066963
 1869.0    0.004046  -0.067430
 1870.0    0.004116  -0.067897
 1871.0    0.004217  -0.068384
 1872.0    0.004318  -0.068871
 1873.0    0.004418  -0.069359
 1874.0    0.004519  -0.069846
 1875.0    0.004620  -0.070333
 1876.0    0.004755  -0.070839
 1877.0    0.004889  -0.071346
 1878.0    0.005024  -0.071852
 1879.0    0.005159  -0.072358
 1880.0    0.005294  -0.072865
 1881.0    0.005468  -0.073388
 1882.0    0.005642  -0.073912
 1883.0    0.005815  -0.074435
 1884.0    0.005989  -0.074959
 1885.0    0.006163  -0.075483
 1886.0    0.006380  -0.076021
 1887.0    0.006598  -0.076560
 1888.0    0.006815  -0.077098
 1889.0    0.007033  -0.077637
 1890.0    0.007250  -0.078176
 1891.0    0.007516  -0.078726
 1892.0    0.007782  -0.079276
 1893.0    0.008049  -0.079826
 1894.0    0.008315  -0.080376
 1895.0    0.008581  -0.080927
 1896.0    0.008901  -0.081484
 1897.0    0.009220  -0.082042
 1898.0    0.009540  -0.082599
 1899.0    0.009860  -0.083157
 1900.0    0.010180  -0.083715
 1901.0    0.010558  -0.084274
 1902.0    0.010937  -0.084834
 1903.0    0.011315  -0.085394
 1904.0    0.011693  -0.085954
 1905.0    0.012072  -0.086513
 1906.0    0.012513  -0.087069
 1907.0    0.012955  -0.087624
 1908.0    0.013396  -0.088180
 1909.0    0.013838  -0.088735
 1910.0    0.014280  -0.089290
 1911.0    0.014788  -0.089834
 1912.0    0.015297  -0.090377
 1913.0    0.015806  -0.090920
 1914.0    0.016315  -0.091463
 1915.0    0.016823  -0.092007
 1916.0    0.017402  -0.092529
 1917.0    0.017982  -0.093051
 1918.0    0.018561  -0.093573
 1919.0    0.019140  -0.094095
 1920.0    0.019719  -0.094618
 1921.0    0.020370  -0.095109
 1922.0    0.021022  -0.095599
 1923.0    0.021673  -0.096090
 1924.0    0.022325  -0.096581
 1925.0    0.022976  -0.097072
 1926.0    0.023700  -0.097520
 1927.0    0.024424  -0.097969
 1928.0    0.025148  -0.098417
 1929.0    0.025872  -0.098865
 1930.0    0.026596  -0.099313
 1931.0    0.027391  -0.099707
 1932.0    0.028186  -0.100100
 1933.0    0.028981  -0.100494
 1934.0    0.029776  -0.100887
 1935.0    0.030571  -0.101281
 1936.0    0.031433  -0.101607
 1937.0    0.032295  -0.101933
 1938.0    0.033157  -0.102259
 1939.0    0.034019  -0.102585
 1940.0    0.034881  -0.102911
 1941.0    0.035804  -0.103156
 1942.0    0.036726  -0.103402
 1943.0    0.037649  -0.103648
 1944.0    0.038571  -0.103894
 1945.0    0.039494  -0.104140
 1946.0    0.040468  -0.104294
 1947.0    0.041442  -0.104447
 1948.0    0.042416  -0.104601
 1949.0    0.043389  -0.104755
 1950.0    0.044363  -0.104909
 1951.0    0.045376  -0.104960
 1952.0    0.046389  -0.105011
 1953.0    0.047402  -0.105062
 1954.0    0.048416  -0.105113
 1955.0    0.049429  -0.105164
 1956.0    0.050466  -0.105104
 1957.0    0.051504  -0.105044
 1958.0    0.052542  -0.104983
 1959.0    0.053580  -0.104923
 1960.0    0.054618  -0.104863
 1961.0    0.055664  -0.104686
 1962.0    0.056710  -0.104508
 1963.0    0.057756  -0.104331
 1964.0    0.058802  -0.104154
 1965.0    0.059848  -0.103976
 1966.0    0.060884  -0.103679
 1967.0    0.061920  -0.103382
 1968.0    0.062956  -0.103085
 1969.0    0.063993  -0.102788
 1970.0    0.065029  -0.102492
 1971.0    0.066037  -0.102076
