   W         E1+(eta_p)
 (MeV)      Re         Im
 1486.0    0.000455  -0.017073
 1487.0    0.000072  -0.019500
 1488.0   -0.000310  -0.021928
 1489.0   -0.000693  -0.024355
 1490.0   -0.001076  -0.026783
 1491.0   -0.001458  -0.029210
 1492.0   -0.001841  -0.031638
 1493.0   -0.002224  -0.034065
 1494.0   -0.002606  -0.036493
 1495.0   -0.002989  -0.038920
 1496.0   -0.003453  -0.040749
 1497.0   -0.003916  -0.042578
 1498.0   -0.004380  -0.044406
 1499.0   -0.004844  -0.046235
 1500.0   -0.005307  -0.048064
 1501.0   -0.005822  -0.049609
 1502.0   -0.006336  -0.051155
 1503.0   -0.006851  -0.052700
 1504.0   -0.007365  -0.054246
 1505.0   -0.007879  -0.055791
 1506.0   -0.008424  -0.057174
 1507.0   -0.008968  -0.058557
 1508.0   -0.009512  -0.059940
 1509.0   -0.010056  -0.061323
 1510.0   -0.010601  -0.062706
 1511.0   -0.011161  -0.063987
 1512.0   -0.011722  -0.065268
 1513.0   -0.012282  -0.066548
 1514.0   -0.012843  -0.067829
 1515.0   -0.013403  -0.069110
 1516.0   -0.013968  -0.070325
 1517.0   -0.014533  -0.071541
 1518.0   -0.015098  -0.072756
 1519.0   -0.015663  -0.073972
 1520.0   -0.016228  -0.075187
 1521.0   -0.016790  -0.076359
 1522.0   -0.017351  -0.077530
 1523.0   -0.017913  -0.078702
 1524.0   -0.018475  -0.079874
 1525.0   -0.019037  -0.081045
 1526.0   -0.019588  -0.082189
 1527.0   -0.020138  -0.083333
 1528.0   -0.020689  -0.084477
 1529.0   -0.021240  -0.085621
 1530.0   -0.021791  -0.086764
 1531.0   -0.022324  -0.087890
 1532.0   -0.022858  -0.089016
 1533.0   -0.023392  -0.090142
 1534.0   -0.023925  -0.091268
 1535.0   -0.024459  -0.092394
 1536.0   -0.024970  -0.093509
 1537.0   -0.025480  -0.094625
 1538.0   -0.025991  -0.095740
 1539.0   -0.026502  -0.096856
 1540.0   -0.027012  -0.097972
 1541.0   -0.027495  -0.099081
 1542.0   -0.027977  -0.100191
 1543.0   -0.028459  -0.101301
 1544.0   -0.028942  -0.102411
 1545.0   -0.029424  -0.103521
 1546.0   -0.029851  -0.104639
 1547.0   -0.030278  -0.105756
 1548.0   -0.030705  -0.106874
 1549.0   -0.031132  -0.107992
 1550.0   -0.031559  -0.109109
 1551.0   -0.032112  -0.110150
 1552.0   -0.032665  -0.111190
 1553.0   -0.033218  -0.112230
 1554.0   -0.033771  -0.113270
 1555.0   -0.034324  -0.114310
 1556.0   -0.034806  -0.115365
 1557.0   -0.035288  -0.116420
 1558.0   -0.035771  -0.117474
 1559.0   -0.036253  -0.118529
 1560.0   -0.036735  -0.119584
 1561.0   -0.037001  -0.120715
 1562.0   -0.037267  -0.121847
 1563.0   -0.037533  -0.122979
 1564.0   -0.037800  -0.124111
 1565.0   -0.038066  -0.125243
 1566.0   -0.038157  -0.126423
 1567.0   -0.038249  -0.127604
 1568.0   -0.038341  -0.128784
 1569.0   -0.038433  -0.129965
 1570.0   -0.038524  -0.131145
 1571.0   -0.038738  -0.132244
 1572.0   -0.038952  -0.133344
 1573.0   -0.039165  -0.134443
 1574.0   -0.039379  -0.135542
 1575.0   -0.039593  -0.136642
 1576.0   -0.039747  -0.137727
 1577.0   -0.039901  -0.138813
 1578.0   -0.040056  -0.139898
 1579.0   -0.040210  -0.140984
 1580.0   -0.040364  -0.142069
 1581.0   -0.040451  -0.143140
 1582.0   -0.040539  -0.144210
 1583.0   -0.040626  -0.145280
 1584.0   -0.040713  -0.146351
 1585.0   -0.040800  -0.147421
 1586.0   -0.040819  -0.148474
 1587.0   -0.040838  -0.149527
 1588.0   -0.040857  -0.150580
 1589.0   -0.040876  -0.151633
 1590.0   -0.040894  -0.152686
 1591.0   -0.040840  -0.153714
 1592.0   -0.040785  -0.154741
 1593.0   -0.040730  -0.155769
 1594.0   -0.040675  -0.156796
 1595.0   -0.040620  -0.157824
 1596.0   -0.040486  -0.158816
 1597.0   -0.040352  -0.159808
 1598.0   -0.040218  -0.160800
 1599.0   -0.040084  -0.161792
 1600.0   -0.039949  -0.162784
 1601.0   -0.039729  -0.163729
 1602.0   -0.039510  -0.164674
 1603.0   -0.039290  -0.165619
 1604.0   -0.039070  -0.166564
 1605.0   -0.038850  -0.167509
 1606.0   -0.038543  -0.168400
 1607.0   -0.038236  -0.169291
 1608.0   -0.037929  -0.170182
 1609.0   -0.037622  -0.171073
 1610.0   -0.037315  -0.171963
 1611.0   -0.036991  -0.172829
 1612.0   -0.036668  -0.173695
 1613.0   -0.036344  -0.174561
 1614.0   -0.036020  -0.175427
 1615.0   -0.035696  -0.176293
 1616.0   -0.035315  -0.177080
 1617.0   -0.034935  -0.177867
 1618.0   -0.034554  -0.178655
 1619.0   -0.034173  -0.179442
 1620.0   -0.033792  -0.180229
 1621.0   -0.033351  -0.180932
 1622.0   -0.032909  -0.181635
 1623.0   -0.032468  -0.182337
 1624.0   -0.032026  -0.183040
 1625.0   -0.031585  -0.183743
 1626.0   -0.031085  -0.184352
 1627.0   -0.030585  -0.184960
 1628.0   -0.030086  -0.185569
 1629.0   -0.029586  -0.186178
 1630.0   -0.029086  -0.186786
 1631.0   -0.028525  -0.187299
 1632.0   -0.027963  -0.187813
 1633.0   -0.027402  -0.188326
 1634.0   -0.026840  -0.188839
 1635.0   -0.026279  -0.189352
 1636.0   -0.025664  -0.189758
 1637.0   -0.025048  -0.190164
 1638.0   -0.024433  -0.190570
 1639.0   -0.023818  -0.190976
 1640.0   -0.023203  -0.191382
 1641.0   -0.022537  -0.191678
 1642.0   -0.021872  -0.191974
 1643.0   -0.021206  -0.192270
 1644.0   -0.020540  -0.192566
 1645.0   -0.019875  -0.192862
 1646.0   -0.019242  -0.193034
 1647.0   -0.018610  -0.193205
 1648.0   -0.017978  -0.193377
 1649.0   -0.017346  -0.193549
 1650.0   -0.016714  -0.193720
 1651.0   -0.015945  -0.193791
 1652.0   -0.015176  -0.193861
 1653.0   -0.014406  -0.193931
 1654.0   -0.013637  -0.194002
 1655.0   -0.012868  -0.194072
 1656.0   -0.011993  -0.194027
 1657.0   -0.011118  -0.193981
 1658.0   -0.010243  -0.193936
 1659.0   -0.009368  -0.193891
 1660.0   -0.008493  -0.193845
 1661.0   -0.007654  -0.193682
 1662.0   -0.006815  -0.193519
 1663.0   -0.005976  -0.193356
 1664.0   -0.005137  -0.193193
 1665.0   -0.004298  -0.193030
 1666.0   -0.003431  -0.192745
 1667.0   -0.002564  -0.192460
 1668.0   -0.001697  -0.192175
 1669.0   -0.000830  -0.191890
 1670.0    0.000037  -0.191605
 1671.0    0.001022  -0.191203
 1672.0    0.002008  -0.190801
 1673.0    0.002993  -0.190399
 1674.0    0.003979  -0.189997
 1675.0    0.004964  -0.189595
 1676.0    0.006114  -0.189065
 1677.0    0.007264  -0.188534
 1678.0    0.008413  -0.188004
 1679.0    0.009563  -0.187473
 1680.0    0.010713  -0.186943
 1681.0    0.011451  -0.186158
 1682.0    0.012189  -0.185373
 1683.0    0.012928  -0.184589
 1684.0    0.013666  -0.183804
 1685.0    0.014404  -0.183019
 1686.0    0.013953  -0.181577
 1687.0    0.013501  -0.180134
 1688.0    0.013050  -0.178692
 1689.0    0.012598  -0.177249
 1690.0    0.012146  -0.175807
 1691.0    0.011518  -0.174067
 1692.0    0.010890  -0.172327
 1693.0    0.010262  -0.170588
 1694.0    0.009635  -0.168848
 1695.0    0.009007  -0.167108
 1696.0    0.008199  -0.165234
 1697.0    0.007391  -0.163360
 1698.0    0.006583  -0.161486
 1699.0    0.005776  -0.159612
 1700.0    0.004968  -0.157738
 1701.0    0.003983  -0.155817
 1702.0    0.002998  -0.153896
 1703.0    0.002013  -0.151975
 1704.0    0.001027  -0.150054
 1705.0    0.000042  -0.148133
 1706.0   -0.001111  -0.146227
 1707.0   -0.002265  -0.144320
 1708.0   -0.003418  -0.142413
 1709.0   -0.004572  -0.140507
 1710.0   -0.005726  -0.138600
 1711.0   -0.007045  -0.136742
 1712.0   -0.008365  -0.134884
 1713.0   -0.009684  -0.133026
 1714.0   -0.011003  -0.131168
 1715.0   -0.012323  -0.129310
 1716.0   -0.013788  -0.127541
 1717.0   -0.015252  -0.125773
 1718.0   -0.016717  -0.124005
 1719.0   -0.018182  -0.122236
 1720.0   -0.019646  -0.120468
 1721.0   -0.021244  -0.118813
 1722.0   -0.022841  -0.117158
 1723.0   -0.024439  -0.115503
 1724.0   -0.026036  -0.113848
 1725.0   -0.027634  -0.112193
 1726.0   -0.029350  -0.110669
 1727.0   -0.031066  -0.109145
 1728.0   -0.032782  -0.107621
 1729.0   -0.034498  -0.106097
 1730.0   -0.036215  -0.104573
 1731.0   -0.038035  -0.103195
 1732.0   -0.039855  -0.101818
 1733.0   -0.041675  -0.100440
 1734.0   -0.043495  -0.099062
 1735.0   -0.045315  -0.097685
 1736.0   -0.047224  -0.096464
 1737.0   -0.049133  -0.095244
 1738.0   -0.051042  -0.094024
 1739.0   -0.052951  -0.092804
 1740.0   -0.054860  -0.091584
 1741.0   -0.056842  -0.090529
 1742.0   -0.058824  -0.089474
 1743.0   -0.060807  -0.088420
 1744.0   -0.062789  -0.087365
 1745.0   -0.064771  -0.086310
 1746.0   -0.066813  -0.085427
 1747.0   -0.068854  -0.084543
 1748.0   -0.070896  -0.083660
 1749.0   -0.072937  -0.082777
 1750.0   -0.074979  -0.081893
 1751.0   -0.077066  -0.081185
 1752.0   -0.079153  -0.080477
 1753.0   -0.081240  -0.079769
 1754.0   -0.083327  -0.079061
 1755.0   -0.085414  -0.078352
 1756.0   -0.087533  -0.077822
 1757.0   -0.089653  -0.077291
 1758.0   -0.091772  -0.076761
 1759.0   -0.093891  -0.076230
 1760.0   -0.096010  -0.075699
 1761.0   -0.098148  -0.075348
 1762.0   -0.100285  -0.074997
 1763.0   -0.102422  -0.074645
 1764.0   -0.104559  -0.074294
 1765.0   -0.106697  -0.073943
 1766.0   -0.108843  -0.073768
 1767.0   -0.110990  -0.073594
 1768.0   -0.113137  -0.073419
 1769.0   -0.115284  -0.073245
 1770.0   -0.117431  -0.073070
 1771.0   -0.119573  -0.073073
 1772.0   -0.121716  -0.073076
 1773.0   -0.123859  -0.073078
 1774.0   -0.126002  -0.073081
 1775.0   -0.128144  -0.073084
 1776.0   -0.130272  -0.073262
 1777.0   -0.132400  -0.073440
 1778.0   -0.134528  -0.073618
 1779.0   -0.136655  -0.073796
 1780.0   -0.138783  -0.073974
 1781.0   -0.140885  -0.074324
 1782.0   -0.142987  -0.074675
 1783.0   -0.145089  -0.075026
 1784.0   -0.147191  -0.075376
 1785.0   -0.149293  -0.075727
 1786.0   -0.151359  -0.076247
 1787.0   -0.153426  -0.076768
 1788.0   -0.155492  -0.077288
 1789.0   -0.157558  -0.077809
 1790.0   -0.159624  -0.078329
 1791.0   -0.161645  -0.079015
 1792.0   -0.163665  -0.079701
 1793.0   -0.165686  -0.080388
 1794.0   -0.167707  -0.081074
 1795.0   -0.169727  -0.081760
 1796.0   -0.171693  -0.082608
 1797.0   -0.173658  -0.083456
 1798.0   -0.175623  -0.084304
 1799.0   -0.177589  -0.085152
 1800.0   -0.179554  -0.086000
 1801.0   -0.181454  -0.086992
 1802.0   -0.183355  -0.087984
 1803.0   -0.185255  -0.088977
 1804.0   -0.187155  -0.089969
 1805.0   -0.189056  -0.090961
 1806.0   -0.190868  -0.092023
 1807.0   -0.192680  -0.093086
 1808.0   -0.194493  -0.094148
 1809.0   -0.196305  -0.095210
 1810.0   -0.198117  -0.096272
 1811.0   -0.199882  -0.097700
 1812.0   -0.201647  -0.099128
 1813.0   -0.203412  -0.100556
 1814.0   -0.205177  -0.101984
 1815.0   -0.206942  -0.103412
 1816.0   -0.208597  -0.104842
 1817.0   -0.210251  -0.106272
 1818.0   -0.211906  -0.107702
 1819.0   -0.213561  -0.109131
 1820.0   -0.215215  -0.110561
 1821.0   -0.216775  -0.112141
 1822.0   -0.218334  -0.113722
 1823.0   -0.219893  -0.115302
 1824.0   -0.221452  -0.116882
 1825.0   -0.223012  -0.118463
 1826.0   -0.224466  -0.120172
 1827.0   -0.225920  -0.121881
 1828.0   -0.227375  -0.123590
 1829.0   -0.228829  -0.125299
 1830.0   -0.230283  -0.127008
 1831.0   -0.231626  -0.128840
 1832.0   -0.232968  -0.130672
 1833.0   -0.234310  -0.132504
 1834.0   -0.235653  -0.134335
 1835.0   -0.236995  -0.136167
 1836.0   -0.238218  -0.138113
 1837.0   -0.239442  -0.140060
 1838.0   -0.240665  -0.142006
 1839.0   -0.241888  -0.143952
 1840.0   -0.243112  -0.145898
 1841.0   -0.244211  -0.147948
 1842.0   -0.245310  -0.149997
 1843.0   -0.246410  -0.152046
 1844.0   -0.247509  -0.154096
 1845.0   -0.248609  -0.156145
 1846.0   -0.249565  -0.158547
 1847.0   -0.250521  -0.160950
 1848.0   -0.251478  -0.163352
 1849.0   -0.252434  -0.165754
 1850.0   -0.253391  -0.168156
 1851.0   -0.254227  -0.170167
 1852.0   -0.255063  -0.172177
 1853.0   -0.255899  -0.174187
 1854.0   -0.256735  -0.176197
 1855.0   -0.257571  -0.178208
 1856.0   -0.258255  -0.180545
 1857.0   -0.258939  -0.182883
 1858.0   -0.259623  -0.185220
 1859.0   -0.260307  -0.187558
 1860.0   -0.260991  -0.189895
 1861.0   -0.261523  -0.192311
 1862.0   -0.262056  -0.194727
 1863.0   -0.262588  -0.197143
 1864.0   -0.263120  -0.199559
 1865.0   -0.263652  -0.201975
 1866.0   -0.264024  -0.204460
 1867.0   -0.264396  -0.206945
 1868.0   -0.264768  -0.209430
 1869.0   -0.265140  -0.211915
 1870.0   -0.265511  -0.214400
 1871.0   -0.265722  -0.216947
 1872.0   -0.265932  -0.219494
 1873.0   -0.266142  -0.222041
 1874.0   -0.266352  -0.224588
 1875.0   -0.266563  -0.227135
 1876.0   -0.266602  -0.229733
 1877.0   -0.266642  -0.232332
 1878.0   -0.266681  -0.234931
 1879.0   -0.266721  -0.237529
 1880.0   -0.266761  -0.240128
 1881.0   -0.266623  -0.242767
 1882.0   -0.266486  -0.245406
 1883.0   -0.266349  -0.248046
 1884.0   -0.266211  -0.250685
 1885.0   -0.266074  -0.253325
 1886.0   -0.265754  -0.255993
 1887.0   -0.265433  -0.258662
 1888.0   -0.265113  -0.261331
 1889.0   -0.264792  -0.264000
 1890.0   -0.264472  -0.266668
 1891.0   -0.263962  -0.269354
 1892.0   -0.263453  -0.272039
 1893.0   -0.262943  -0.274724
 1894.0   -0.262434  -0.277409
 1895.0   -0.261924  -0.280095
 1896.0   -0.261221  -0.282782
 1897.0   -0.260517  -0.285470
 1898.0   -0.259813  -0.288157
 1899.0   -0.259109  -0.290845
 1900.0   -0.258405  -0.293532
 1901.0   -0.257503  -0.296206
 1902.0   -0.256601  -0.298881
 1903.0   -0.255698  -0.301555
 1904.0   -0.254796  -0.304229
 1905.0   -0.253893  -0.306903
 1906.0   -0.252789  -0.309547
 1907.0   -0.251685  -0.312191
 1908.0   -0.250581  -0.314834
 1909.0   -0.249477  -0.317478
 1910.0   -0.248373  -0.320122
 1911.0   -0.247066  -0.322717
 1912.0   -0.245759  -0.325312
 1913.0   -0.244452  -0.327907
 1914.0   -0.243145  -0.330502
 1915.0   -0.241838  -0.333097
 1916.0   -0.240329  -0.335624
 1917.0   -0.238820  -0.338150
 1918.0   -0.237310  -0.340677
 1919.0   -0.235801  -0.343204
 1920.0   -0.234292  -0.345731
 1921.0   -0.232664  -0.348215
 1922.0   -0.231036  -0.350699
 1923.0   -0.229408  -0.353183
 1924.0   -0.227780  -0.355667
 1925.0   -0.226152  -0.358151
 1926.0   -0.224168  -0.360433
 1927.0   -0.222184  -0.362715
 1928.0   -0.220201  -0.364997
 1929.0   -0.218217  -0.367279
 1930.0   -0.216233  -0.369560
 1931.0   -0.214149  -0.371761
 1932.0   -0.212065  -0.373961
 1933.0   -0.209981  -0.376161
 1934.0   -0.207898  -0.378361
 1935.0   -0.205814  -0.380561
 1936.0   -0.203556  -0.382611
 1937.0   -0.201298  -0.384660
 1938.0   -0.199041  -0.386709
 1939.0   -0.196783  -0.388759
 1940.0   -0.194525  -0.390808
 1941.0   -0.192110  -0.392689
 1942.0   -0.189695  -0.394569
 1943.0   -0.187281  -0.396450
 1944.0   -0.184866  -0.398331
 1945.0   -0.182451  -0.400212
 1946.0   -0.179897  -0.401908
 1947.0   -0.177343  -0.403603
 1948.0   -0.174789  -0.405299
 1949.0   -0.172235  -0.406995
 1950.0   -0.169681  -0.408691
 1951.0   -0.167008  -0.410187
 1952.0   -0.164336  -0.411684
 1953.0   -0.161663  -0.413180
 1954.0   -0.158991  -0.414677
 1955.0   -0.156318  -0.416173
 1956.0   -0.153549  -0.417460
 1957.0   -0.150780  -0.418747
 1958.0   -0.148011  -0.420034
 1959.0   -0.145242  -0.421320
 1960.0   -0.142473  -0.422607
 1961.0   -0.139632  -0.423676
 1962.0   -0.136791  -0.424745
 1963.0   -0.133950  -0.425813
 1964.0   -0.131108  -0.426882
 1965.0   -0.128267  -0.427951
 1966.0   -0.125378  -0.428798
 1967.0   -0.122488  -0.429645
 1968.0   -0.119599  -0.430492
 1969.0   -0.116710  -0.431339
 1970.0   -0.113820  -0.432186
 1971.0   -0.110908  -0.432811
