   W         M4-(eta_p)
 (MeV)      Re         Im
 1486.0    0.000003   0.000000
 1487.0    0.000002   0.000000
 1488.0    0.000001   0.000000
 1489.0   -0.000000   0.000000
 1490.0   -0.000001  -0.000000
 1491.0   -0.000002  -0.000000
 1492.0   -0.000004  -0.000000
 1493.0   -0.000005  -0.000000
 1494.0   -0.000006  -0.000000
 1495.0   -0.000007  -0.000000
 1496.0   -0.000008  -0.000001
 1497.0   -0.000010  -0.000001
 1498.0   -0.000011  -0.000002
 1499.0   -0.000013  -0.000002
 1500.0   -0.000014  -0.000002
 1501.0   -0.000017  -0.000002
 1502.0   -0.000020  -0.000002
 1503.0   -0.000023  -0.000002
 1504.0   -0.000027  -0.000002
 1505.0   -0.000030  -0.000002
 1506.0   -0.000033  -0.000002
 1507.0   -0.000037  -0.000003
 1508.0   -0.000040  -0.000003
 1509.0   -0.000044  -0.000003
 1510.0   -0.000047  -0.000004
 1511.0   -0.000052  -0.000005
 1512.0   -0.000056  -0.000005
 1513.0   -0.000060  -0.000006
 1514.0   -0.000064  -0.000007
 1515.0   -0.000069  -0.000008
 1516.0   -0.000074  -0.000009
 1517.0   -0.000079  -0.000010
 1518.0   -0.000084  -0.000010
 1519.0   -0.000090  -0.000011
 1520.0   -0.000095  -0.000012
 1521.0   -0.000101  -0.000013
 1522.0   -0.000107  -0.000015
 1523.0   -0.000114  -0.000016
 1524.0   -0.000120  -0.000017
 1525.0   -0.000126  -0.000019
 1526.0   -0.000133  -0.000020
 1527.0   -0.000140  -0.000022
 1528.0   -0.000147  -0.000024
 1529.0   -0.000154  -0.000026
 1530.0   -0.000161  -0.000027
 1531.0   -0.000169  -0.000029
 1532.0   -0.000177  -0.000031
 1533.0   -0.000185  -0.000034
 1534.0   -0.000194  -0.000036
 1535.0   -0.000202  -0.000038
 1536.0   -0.000211  -0.000040
 1537.0   -0.000220  -0.000043
 1538.0   -0.000229  -0.000045
 1539.0   -0.000238  -0.000048
 1540.0   -0.000247  -0.000051
 1541.0   -0.000257  -0.000054
 1542.0   -0.000267  -0.000057
 1543.0   -0.000277  -0.000060
 1544.0   -0.000287  -0.000063
 1545.0   -0.000297  -0.000066
 1546.0   -0.000308  -0.000070
 1547.0   -0.000319  -0.000074
 1548.0   -0.000329  -0.000078
 1549.0   -0.000340  -0.000083
 1550.0   -0.000351  -0.000087
 1551.0   -0.000363  -0.000091
 1552.0   -0.000375  -0.000095
 1553.0   -0.000387  -0.000100
 1554.0   -0.000399  -0.000104
 1555.0   -0.000411  -0.000109
 1556.0   -0.000423  -0.000114
 1557.0   -0.000436  -0.000119
 1558.0   -0.000449  -0.000125
 1559.0   -0.000462  -0.000130
 1560.0   -0.000475  -0.000135
 1561.0   -0.000489  -0.000141
 1562.0   -0.000502  -0.000148
 1563.0   -0.000516  -0.000154
 1564.0   -0.000530  -0.000160
 1565.0   -0.000544  -0.000166
 1566.0   -0.000558  -0.000173
 1567.0   -0.000573  -0.000180
 1568.0   -0.000588  -0.000187
 1569.0   -0.000602  -0.000194
 1570.0   -0.000617  -0.000201
 1571.0   -0.000633  -0.000209
 1572.0   -0.000648  -0.000217
 1573.0   -0.000664  -0.000225
 1574.0   -0.000679  -0.000233
 1575.0   -0.000695  -0.000241
 1576.0   -0.000711  -0.000250
 1577.0   -0.000727  -0.000260
 1578.0   -0.000743  -0.000269
 1579.0   -0.000759  -0.000279
 1580.0   -0.000776  -0.000288
 1581.0   -0.000793  -0.000298
 1582.0   -0.000811  -0.000308
 1583.0   -0.000828  -0.000318
 1584.0   -0.000846  -0.000328
 1585.0   -0.000863  -0.000338
 1586.0   -0.000881  -0.000349
 1587.0   -0.000899  -0.000360
 1588.0   -0.000917  -0.000372
 1589.0   -0.000935  -0.000383
 1590.0   -0.000953  -0.000394
 1591.0   -0.000972  -0.000407
 1592.0   -0.000991  -0.000420
 1593.0   -0.001010  -0.000432
 1594.0   -0.001029  -0.000445
 1595.0   -0.001047  -0.000457
 1596.0   -0.001067  -0.000471
 1597.0   -0.001086  -0.000485
 1598.0   -0.001106  -0.000499
 1599.0   -0.001125  -0.000513
 1600.0   -0.001145  -0.000527
 1601.0   -0.001165  -0.000542
 1602.0   -0.001185  -0.000557
 1603.0   -0.001206  -0.000573
 1604.0   -0.001226  -0.000588
 1605.0   -0.001246  -0.000603
 1606.0   -0.001267  -0.000620
 1607.0   -0.001287  -0.000637
 1608.0   -0.001308  -0.000653
 1609.0   -0.001329  -0.000670
 1610.0   -0.001350  -0.000687
 1611.0   -0.001371  -0.000705
 1612.0   -0.001392  -0.000723
 1613.0   -0.001414  -0.000742
 1614.0   -0.001435  -0.000760
 1615.0   -0.001456  -0.000778
 1616.0   -0.001478  -0.000798
 1617.0   -0.001500  -0.000818
 1618.0   -0.001521  -0.000838
 1619.0   -0.001543  -0.000857
 1620.0   -0.001565  -0.000877
 1621.0   -0.001587  -0.000899
 1622.0   -0.001609  -0.000920
 1623.0   -0.001631  -0.000941
 1624.0   -0.001653  -0.000963
 1625.0   -0.001676  -0.000984
 1626.0   -0.001698  -0.001007
 1627.0   -0.001721  -0.001030
 1628.0   -0.001744  -0.001054
 1629.0   -0.001767  -0.001077
 1630.0   -0.001790  -0.001100
 1631.0   -0.001812  -0.001125
 1632.0   -0.001834  -0.001149
 1633.0   -0.001857  -0.001174
 1634.0   -0.001879  -0.001199
 1635.0   -0.001902  -0.001224
 1636.0   -0.001924  -0.001251
 1637.0   -0.001947  -0.001277
 1638.0   -0.001970  -0.001304
 1639.0   -0.001993  -0.001331
 1640.0   -0.002016  -0.001357
 1641.0   -0.002039  -0.001386
 1642.0   -0.002061  -0.001414
 1643.0   -0.002084  -0.001443
 1644.0   -0.002107  -0.001471
 1645.0   -0.002130  -0.001499
 1646.0   -0.002153  -0.001530
 1647.0   -0.002176  -0.001560
 1648.0   -0.002199  -0.001590
 1649.0   -0.002221  -0.001621
 1650.0   -0.002244  -0.001651
 1651.0   -0.002267  -0.001683
 1652.0   -0.002290  -0.001715
 1653.0   -0.002312  -0.001748
 1654.0   -0.002335  -0.001780
 1655.0   -0.002358  -0.001812
 1656.0   -0.002380  -0.001846
 1657.0   -0.002403  -0.001880
 1658.0   -0.002425  -0.001915
 1659.0   -0.002447  -0.001949
 1660.0   -0.002470  -0.001983
 1661.0   -0.002492  -0.002019
 1662.0   -0.002514  -0.002055
 1663.0   -0.002536  -0.002091
 1664.0   -0.002558  -0.002127
 1665.0   -0.002580  -0.002163
 1666.0   -0.002602  -0.002201
 1667.0   -0.002623  -0.002239
 1668.0   -0.002645  -0.002278
 1669.0   -0.002666  -0.002316
 1670.0   -0.002688  -0.002354
 1671.0   -0.002709  -0.002394
 1672.0   -0.002730  -0.002434
 1673.0   -0.002751  -0.002474
 1674.0   -0.002772  -0.002514
 1675.0   -0.002793  -0.002554
 1676.0   -0.002813  -0.002596
 1677.0   -0.002833  -0.002638
 1678.0   -0.002853  -0.002680
 1679.0   -0.002873  -0.002722
 1680.0   -0.002894  -0.002765
 1681.0   -0.002913  -0.002809
 1682.0   -0.002932  -0.002853
 1683.0   -0.002952  -0.002897
 1684.0   -0.002971  -0.002941
 1685.0   -0.002990  -0.002985
 1686.0   -0.003009  -0.003031
 1687.0   -0.003027  -0.003077
 1688.0   -0.003045  -0.003123
 1689.0   -0.003064  -0.003169
 1690.0   -0.003082  -0.003215
 1691.0   -0.003099  -0.003264
 1692.0   -0.003117  -0.003312
 1693.0   -0.003134  -0.003360
 1694.0   -0.003151  -0.003408
 1695.0   -0.003168  -0.003456
 1696.0   -0.003184  -0.003506
 1697.0   -0.003200  -0.003556
 1698.0   -0.003216  -0.003606
 1699.0   -0.003232  -0.003656
 1700.0   -0.003248  -0.003706
 1701.0   -0.003263  -0.003758
 1702.0   -0.003277  -0.003811
 1703.0   -0.003292  -0.003863
 1704.0   -0.003306  -0.003915
 1705.0   -0.003321  -0.003967
 1706.0   -0.003333  -0.004022
 1707.0   -0.003345  -0.004076
 1708.0   -0.003357  -0.004131
 1709.0   -0.003369  -0.004186
 1710.0   -0.003381  -0.004241
 1711.0   -0.003394  -0.004296
 1712.0   -0.003406  -0.004351
 1713.0   -0.003419  -0.004406
 1714.0   -0.003432  -0.004461
 1715.0   -0.003444  -0.004516
 1716.0   -0.003454  -0.004573
 1717.0   -0.003463  -0.004631
 1718.0   -0.003473  -0.004689
 1719.0   -0.003482  -0.004747
 1720.0   -0.003492  -0.004805
 1721.0   -0.003499  -0.004864
 1722.0   -0.003507  -0.004924
 1723.0   -0.003514  -0.004984
 1724.0   -0.003522  -0.005043
 1725.0   -0.003529  -0.005103
 1726.0   -0.003535  -0.005164
 1727.0   -0.003540  -0.005226
 1728.0   -0.003546  -0.005287
 1729.0   -0.003551  -0.005349
 1730.0   -0.003557  -0.005410
 1731.0   -0.003560  -0.005473
 1732.0   -0.003563  -0.005536
 1733.0   -0.003566  -0.005600
 1734.0   -0.003570  -0.005663
 1735.0   -0.003573  -0.005726
 1736.0   -0.003574  -0.005791
 1737.0   -0.003575  -0.005856
 1738.0   -0.003575  -0.005921
 1739.0   -0.003576  -0.005986
 1740.0   -0.003577  -0.006050
 1741.0   -0.003575  -0.006117
 1742.0   -0.003573  -0.006183
 1743.0   -0.003572  -0.006250
 1744.0   -0.003570  -0.006317
 1745.0   -0.003568  -0.006383
 1746.0   -0.003564  -0.006451
 1747.0   -0.003559  -0.006519
 1748.0   -0.003555  -0.006587
 1749.0   -0.003550  -0.006655
 1750.0   -0.003546  -0.006723
 1751.0   -0.003539  -0.006793
 1752.0   -0.003531  -0.006863
 1753.0   -0.003524  -0.006932
 1754.0   -0.003517  -0.007002
 1755.0   -0.003509  -0.007071
 1756.0   -0.003499  -0.007142
 1757.0   -0.003489  -0.007213
 1758.0   -0.003478  -0.007284
 1759.0   -0.003468  -0.007355
 1760.0   -0.003458  -0.007426
 1761.0   -0.003444  -0.007498
 1762.0   -0.003431  -0.007571
 1763.0   -0.003417  -0.007643
 1764.0   -0.003404  -0.007715
 1765.0   -0.003390  -0.007788
 1766.0   -0.003374  -0.007861
 1767.0   -0.003357  -0.007935
 1768.0   -0.003340  -0.008008
 1769.0   -0.003323  -0.008082
 1770.0   -0.003307  -0.008155
 1771.0   -0.003286  -0.008230
 1772.0   -0.003266  -0.008305
 1773.0   -0.003246  -0.008379
 1774.0   -0.003226  -0.008454
 1775.0   -0.003205  -0.008528
 1776.0   -0.003182  -0.008604
 1777.0   -0.003158  -0.008680
 1778.0   -0.003134  -0.008755
 1779.0   -0.003110  -0.008831
 1780.0   -0.003086  -0.008907
 1781.0   -0.003059  -0.008983
 1782.0   -0.003031  -0.009060
 1783.0   -0.003003  -0.009136
 1784.0   -0.002976  -0.009213
 1785.0   -0.002948  -0.009289
 1786.0   -0.002917  -0.009367
 1787.0   -0.002885  -0.009444
 1788.0   -0.002854  -0.009521
 1789.0   -0.002822  -0.009598
 1790.0   -0.002791  -0.009676
 1791.0   -0.002755  -0.009754
 1792.0   -0.002720  -0.009831
 1793.0   -0.002684  -0.009909
 1794.0   -0.002649  -0.009987
 1795.0   -0.002613  -0.010065
 1796.0   -0.002573  -0.010144
 1797.0   -0.002534  -0.010222
 1798.0   -0.002494  -0.010300
 1799.0   -0.002454  -0.010379
 1800.0   -0.002414  -0.010457
 1801.0   -0.002370  -0.010536
 1802.0   -0.002326  -0.010614
 1803.0   -0.002282  -0.010693
 1804.0   -0.002238  -0.010772
 1805.0   -0.002194  -0.010851
 1806.0   -0.002145  -0.010929
 1807.0   -0.002097  -0.011008
 1808.0   -0.002048  -0.011087
 1809.0   -0.002000  -0.011166
 1810.0   -0.001951  -0.011245
 1811.0   -0.001898  -0.011324
 1812.0   -0.001845  -0.011403
 1813.0   -0.001792  -0.011482
 1814.0   -0.001739  -0.011560
 1815.0   -0.001685  -0.011639
 1816.0   -0.001628  -0.011718
 1817.0   -0.001570  -0.011797
 1818.0   -0.001512  -0.011875
 1819.0   -0.001454  -0.011954
 1820.0   -0.001396  -0.012033
 1821.0   -0.001333  -0.012111
 1822.0   -0.001270  -0.012189
 1823.0   -0.001207  -0.012267
 1824.0   -0.001145  -0.012346
 1825.0   -0.001082  -0.012424
 1826.0   -0.001014  -0.012502
 1827.0   -0.000946  -0.012579
 1828.0   -0.000878  -0.012657
 1829.0   -0.000811  -0.012735
 1830.0   -0.000743  -0.012813
 1831.0   -0.000670  -0.012890
 1832.0   -0.000597  -0.012967
 1833.0   -0.000524  -0.013043
 1834.0   -0.000451  -0.013120
 1835.0   -0.000378  -0.013197
 1836.0   -0.000300  -0.013273
 1837.0   -0.000221  -0.013349
 1838.0   -0.000143  -0.013425
 1839.0   -0.000065  -0.013501
 1840.0    0.000014  -0.013577
 1841.0    0.000097  -0.013652
 1842.0    0.000180  -0.013726
 1843.0    0.000263  -0.013800
 1844.0    0.000346  -0.013874
 1845.0    0.000429  -0.013948
 1846.0    0.000518  -0.014022
 1847.0    0.000607  -0.014095
 1848.0    0.000697  -0.014169
 1849.0    0.000786  -0.014242
 1850.0    0.000875  -0.014316
 1851.0    0.000970  -0.014387
 1852.0    0.001065  -0.014459
 1853.0    0.001159  -0.014530
 1854.0    0.001254  -0.014602
 1855.0    0.001349  -0.014673
 1856.0    0.001449  -0.014743
 1857.0    0.001549  -0.014812
 1858.0    0.001650  -0.014882
 1859.0    0.001750  -0.014951
 1860.0    0.001851  -0.015021
 1861.0    0.001957  -0.015088
 1862.0    0.002063  -0.015155
 1863.0    0.002169  -0.015223
 1864.0    0.002275  -0.015290
 1865.0    0.002381  -0.015357
 1866.0    0.002493  -0.015422
 1867.0    0.002605  -0.015487
 1868.0    0.002717  -0.015551
 1869.0    0.002829  -0.015616
 1870.0    0.002941  -0.015681
 1871.0    0.003059  -0.015743
 1872.0    0.003177  -0.015805
 1873.0    0.003295  -0.015867
 1874.0    0.003413  -0.015928
 1875.0    0.003531  -0.015990
 1876.0    0.003655  -0.016049
 1877.0    0.003779  -0.016108
 1878.0    0.003903  -0.016167
 1879.0    0.004027  -0.016225
 1880.0    0.004151  -0.016284
 1881.0    0.004281  -0.016339
 1882.0    0.004411  -0.016395
 1883.0    0.004541  -0.016450
 1884.0    0.004671  -0.016505
 1885.0    0.004801  -0.016561
 1886.0    0.004937  -0.016612
 1887.0    0.005073  -0.016664
 1888.0    0.005209  -0.016715
 1889.0    0.005346  -0.016767
 1890.0    0.005482  -0.016818
 1891.0    0.005624  -0.016866
 1892.0    0.005766  -0.016913
 1893.0    0.005909  -0.016960
 1894.0    0.006051  -0.017008
 1895.0    0.006194  -0.017055
 1896.0    0.006342  -0.017098
 1897.0    0.006491  -0.017141
 1898.0    0.006639  -0.017184
 1899.0    0.006788  -0.017226
 1900.0    0.006936  -0.017269
 1901.0    0.007091  -0.017307
 1902.0    0.007246  -0.017345
 1903.0    0.007401  -0.017383
 1904.0    0.007556  -0.017421
 1905.0    0.007710  -0.017459
 1906.0    0.007871  -0.017492
 1907.0    0.008032  -0.017525
 1908.0    0.008193  -0.017558
 1909.0    0.008354  -0.017590
 1910.0    0.008515  -0.017623
 1911.0    0.008683  -0.017650
 1912.0    0.008850  -0.017677
 1913.0    0.009017  -0.017704
 1914.0    0.009184  -0.017731
 1915.0    0.009351  -0.017758
 1916.0    0.009525  -0.017779
 1917.0    0.009698  -0.017800
 1918.0    0.009872  -0.017821
 1919.0    0.010045  -0.017842
 1920.0    0.010218  -0.017863
 1921.0    0.010398  -0.017877
 1922.0    0.010578  -0.017892
 1923.0    0.010757  -0.017906
 1924.0    0.010937  -0.017921
 1925.0    0.011116  -0.017935
 1926.0    0.011302  -0.017943
 1927.0    0.011487  -0.017950
 1928.0    0.011673  -0.017958
 1929.0    0.011859  -0.017965
 1930.0    0.012044  -0.017973
 1931.0    0.012236  -0.017973
 1932.0    0.012427  -0.017973
 1933.0    0.012619  -0.017973
 1934.0    0.012810  -0.017973
 1935.0    0.013002  -0.017973
 1936.0    0.013199  -0.017965
 1937.0    0.013397  -0.017957
 1938.0    0.013594  -0.017949
 1939.0    0.013792  -0.017941
 1940.0    0.013989  -0.017933
 1941.0    0.014192  -0.017917
 1942.0    0.014395  -0.017900
 1943.0    0.014598  -0.017884
 1944.0    0.014801  -0.017868
 1945.0    0.015004  -0.017851
 1946.0    0.015213  -0.017826
 1947.0    0.015422  -0.017801
 1948.0    0.015630  -0.017775
 1949.0    0.015839  -0.017750
 1950.0    0.016047  -0.017725
 1951.0    0.016261  -0.017690
 1952.0    0.016475  -0.017655
 1953.0    0.016689  -0.017620
 1954.0    0.016903  -0.017585
 1955.0    0.017117  -0.017551
 1956.0    0.017336  -0.017506
 1957.0    0.017555  -0.017461
 1958.0    0.017774  -0.017416
 1959.0    0.017993  -0.017371
 1960.0    0.018212  -0.017327
 1961.0    0.018436  -0.017271
 1962.0    0.018659  -0.017216
 1963.0    0.018883  -0.017160
 1964.0    0.019107  -0.017105
 1965.0    0.019331  -0.017050
 1966.0    0.019559  -0.016983
 1967.0    0.019787  -0.016916
 1968.0    0.020015  -0.016850
 1969.0    0.020243  -0.016783
 1970.0    0.020471  -0.016717
 1971.0    0.020704  -0.016638
